Data from BA28301_Reflection_00005.txt Node
Date: Mon Nov 18 15:45:07 EST 2019
User: vgr7
Spectrometer: USB2G7710
Scans to average: 3
Trigger mode: 4
Integration Time (sec): 2.000000E-2
Electric dark correction enabled: true
Boxcar width: 10
XAxis mode: Wavelengths
Number of Pixels in Spectrum: 2048
>>>>>Begin Spectral Data<<<<<
177.721	721.91
178.105	814.29
178.488	78.68
178.871	-62.23
179.254	233.97
179.636	75.52
180.019	323.56
180.402	288.89
180.785	-112.93
181.168	472.88
181.55	315.3
181.933	138.78
182.316	129.39
182.698	95.48
183.081	57.51
183.463	48.6
183.846	67.88
184.228	41.2
184.611	73.4
184.993	123.14
185.376	115.68
185.758	196.6
186.14	444.46
186.522	568.33
186.904	-763.27
187.287	2553.78
187.669	-688.15
188.051	-640.05
188.433	-486.06
188.815	-595.01
189.197	-1162.67
189.579	-284.52
189.961	-365.99
190.342	-721.36
190.724	-506.77
191.106	-352.76
191.488	-463.04
191.869	-199.38
192.251	-193.35
192.633	-270.43
193.014	-426.32
193.396	-529.39
193.777	-1388.37
194.159	-4323.53
194.54	-696.5
194.922	-583.36
195.303	-1325.61
195.684	878.12
196.065	-512.69
196.447	12688.24
196.828	-764.05
197.209	-353.25
197.59	-1916.53
197.971	-3463.64
198.352	-207.69
198.733	-120.94
199.114	-293.19
199.495	-79.47
199.876	-75.55
200.257	-29.4
200.638	-7.07
201.018	-15.8
201.399	8.3
201.78	20.11
202.16	-0.66
202.541	-34.64
202.922	-88.54
203.302	-122.88
203.683	-114.46
204.063	-204.71
204.444	-186.34
204.824	-236.96
205.204	-248.94
205.585	-257.84
205.965	-233.17
206.345	-392.99
206.725	-1481.54
207.106	12051.22
207.486	568.09
207.866	461.28
208.246	516.59
208.626	646.82
209.006	773.68
209.386	426.2
209.766	302.87
210.145	289.84
210.525	341.45
210.905	628.3
211.285	78900
211.664	-3955.05
212.044	1467.27
212.424	-546.2
212.803	-240.39
213.183	-338.47
213.562	-191.35
213.942	-82.31
214.321	-74.61
214.701	-60.33
215.08	-42.94
215.459	-35.68
215.838	-27.33
216.218	-31.91
216.597	-23.13
216.976	-20.7
217.355	-14.83
217.734	-15.19
218.113	-10.83
218.492	-6.9
218.871	-10.91
219.25	2.03
219.629	7.37
220.008	11.62
220.387	10.83
220.766	10.71
221.144	3.4
221.523	1.39
221.902	-11.19
222.28	-10.08
222.659	-4.78
223.037	0.99
223.416	-4.86
223.794	-8.89
224.173	1.48
224.551	-1.84
224.929	-10.22
225.308	-9.38
225.686	-11.79
226.064	-10.95
226.442	-13.92
226.821	-8.59
227.199	-11.06
227.577	-13.42
227.955	-13.96
228.333	-12.02
228.711	-8.27
229.089	-3.44
229.467	-5.91
229.845	-5.51
230.222	-4.45
230.6	-5.91
230.978	-5.7
231.356	-4.05
231.733	-2.96
232.111	-3.96
232.488	-2.49
232.866	-0.97
233.243	-0.07
233.621	-1.09
233.998	-0.3
234.376	-0.88
234.753	-1.07
235.13	-1
235.508	0.4
235.885	-0.05
236.262	-0.89
236.639	-3.12
237.016	-2.5
237.393	0.65
237.77	1.98
238.147	3.38
238.524	3.96
238.901	4.44
239.278	4.64
239.655	4.66
240.032	4.93
240.409	4.77
240.785	4.75
241.162	4.85
241.539	5.51
241.915	5.59
242.292	5.81
242.668	5.57
243.045	5.91
243.421	5.87
243.798	5.58
244.174	5.54
244.551	5.94
244.927	5.69
245.303	5.4
245.679	5.26
246.056	5.04
246.432	5.04
246.808	4.79
247.184	4.55
247.56	4.37
247.936	4.4
248.312	4.25
248.688	4.25
249.064	4.22
249.44	4.1
249.815	4
250.191	3.83
250.567	3.83
250.943	3.56
251.318	3.63
251.694	3.76
252.069	3.83
252.445	3.9
252.82	3.8
253.196	3.78
253.571	3.67
253.947	3.48
254.322	3.5
254.697	3.35
255.073	3.23
255.448	3.52
255.823	3.69
256.198	3.82
256.573	3.79
256.948	3.71
257.323	3.92
257.698	4.05
258.073	4.24
258.448	4.26
258.823	4.2
259.198	4.12
259.573	4.01
259.948	3.97
260.322	3.94
260.697	3.99
261.072	4.05
261.446	4.08
261.821	4.11
262.195	4.06
262.57	4.07
262.944	4.16
263.319	4.1
263.693	3.87
264.067	3.92
264.442	4.04
264.816	4.15
265.19	3.98
265.564	3.9
265.938	3.75
266.313	3.66
266.687	3.87
267.061	3.91
267.435	4.01
267.809	3.99
268.183	3.99
268.556	3.85
268.93	3.75
269.304	3.65
269.678	3.7
270.051	3.73
270.425	3.83
270.799	3.89
271.172	3.89
271.546	4.04
271.919	3.91
272.293	4
272.666	3.93
273.04	4.01
273.413	3.92
273.787	3.88
274.16	3.88
274.533	3.86
274.906	3.91
275.279	3.88
275.653	3.94
276.026	3.88
276.399	3.97
276.772	4.13
277.145	4.13
277.518	4.05
277.891	4.07
278.263	4.14
278.636	4.06
279.009	4.15
279.382	4.25
279.755	4.18
280.127	4.05
280.5	4.09
280.872	4.14
281.245	4.14
281.617	4.27
281.99	4.41
282.362	4.35
282.735	4.26
283.107	4.28
283.479	4.14
283.852	4.08
284.224	4.16
284.596	3.89
284.968	3.94
285.34	4.06
285.713	4.12
286.085	4.06
286.457	4.11
286.829	4.08
287.201	3.97
287.572	3.94
287.944	3.85
288.316	3.8
288.688	3.72
289.06	3.86
289.431	3.81
289.803	3.73
290.175	3.75
290.546	3.83
290.918	3.89
291.289	3.92
291.661	3.98
292.032	4.01
292.403	4.2
292.775	4.24
293.146	4.13
293.517	4.07
293.889	4.19
294.26	4.11
294.631	4.12
295.002	4.14
295.373	4.24
295.744	4.25
296.115	4.35
296.486	4.29
296.857	4.31
297.228	4.45
297.599	4.5
297.97	4.47
298.34	4.41
298.711	4.44
299.082	4.47
299.452	4.42
299.823	4.45
300.194	4.44
300.564	4.38
300.935	4.5
301.305	4.51
301.676	4.37
302.046	4.38
302.416	4.37
302.787	4.31
303.157	4.4
303.527	4.4
303.897	4.35
304.267	4.46
304.637	4.4
305.008	4.14
305.378	4.08
305.748	4.13
306.117	3.99
306.487	3.97
306.857	3.94
307.227	4.01
307.597	3.88
307.967	3.87
308.336	3.84
308.706	3.74
309.076	3.75
309.445	3.76
309.815	3.73
310.184	3.62
310.554	3.74
310.923	3.57
311.293	3.51
311.662	3.43
312.031	3.38
312.401	3.33
312.77	3.42
313.139	3.52
313.508	3.48
313.877	3.64
314.246	3.58
314.616	3.49
314.985	3.44
315.353	3.46
315.722	3.6
316.091	3.55
316.46	3.45
316.829	3.47
317.198	3.51
317.567	3.54
317.935	3.6
318.304	3.4
318.672	3.41
319.041	3.54
319.41	3.6
319.778	3.58
320.147	3.62
320.515	3.7
320.883	3.46
321.252	3.5
321.62	3.41
321.988	3.31
322.357	3.32
322.725	3.31
323.093	3.21
323.461	3.06
323.829	3.12
324.197	3.26
324.565	3.17
324.933	3.17
325.301	3.18
325.669	3.24
326.037	3.23
326.405	3.28
326.772	3.3
327.14	3.37
327.508	3.5
327.875	3.33
328.243	3.25
328.61	3.31
328.978	3.24
329.346	3.24
329.713	3.26
330.08	3.3
330.448	3.32
330.815	3.3
331.182	3.32
331.55	3.34
331.917	3.2
332.284	3.27
332.651	3.27
333.018	3.34
333.385	3.19
333.752	3.22
334.119	3.26
334.486	3.14
334.853	3.06
335.22	2.96
335.587	3.18
335.954	3.23
336.32	3.27
336.687	3.33
337.054	3.39
337.42	3.54
337.787	3.56
338.153	3.59
338.52	3.71
338.886	3.7
339.253	3.65
339.619	3.86
339.986	3.82
340.352	3.82
340.718	3.87
341.084	3.92
341.451	3.95
341.817	3.94
342.183	3.97
342.549	3.96
342.915	3.91
343.281	3.86
343.647	3.77
344.013	3.75
344.379	3.69
344.745	3.64
345.11	3.56
345.476	3.58
345.842	3.54
346.208	3.48
346.573	3.55
346.939	3.62
347.304	3.42
347.67	3.34
348.035	3.35
348.401	3.27
348.766	3.33
349.132	3.33
349.497	3.31
349.862	3.39
350.228	3.47
350.593	3.54
350.958	3.55
351.323	3.57
351.688	3.53
352.053	3.62
352.418	3.72
352.783	3.7
353.148	3.64
353.513	3.58
353.878	3.58
354.243	3.56
354.608	3.53
354.972	3.61
355.337	3.69
355.702	3.77
356.066	3.87
356.431	3.86
356.795	3.93
357.16	3.95
357.524	3.91
357.889	3.83
358.253	3.83
358.618	3.79
358.982	3.82
359.346	3.76
359.71	3.72
360.075	3.63
360.439	3.68
360.803	3.7
361.167	3.73
361.531	3.77
361.895	3.72
362.259	3.71
362.623	3.71
362.987	3.71
363.351	3.65
363.714	3.62
364.078	3.61
364.442	3.51
364.806	3.51
365.169	3.51
365.533	3.56
365.896	3.55
366.26	3.58
366.623	3.54
366.987	3.6
367.35	3.6
367.714	3.63
368.077	3.58
368.44	3.58
368.803	3.54
369.167	3.48
369.53	3.49
369.893	3.55
370.256	3.51
370.619	3.5
370.982	3.45
371.345	3.39
371.708	3.36
372.071	3.4
372.434	3.41
372.797	3.36
373.159	3.29
373.522	3.3
373.885	3.29
374.247	3.32
374.61	3.35
374.973	3.37
375.335	3.36
375.698	3.38
376.06	3.42
376.423	3.42
376.785	3.44
377.147	3.48
377.51	3.41
377.872	3.48
378.234	3.45
378.596	3.49
378.958	3.47
379.321	3.53
379.683	3.55
380.045	3.54
380.407	3.57
380.769	3.58
381.13	3.58
381.492	3.57
381.854	3.6
382.216	3.61
382.578	3.61
382.939	3.58
383.301	3.57
383.663	3.51
384.024	3.53
384.386	3.59
384.747	3.6
385.109	3.67
385.47	3.62
385.832	3.65
386.193	3.66
386.554	3.72
386.916	3.69
387.277	3.7
387.638	3.73
387.999	3.73
388.36	3.76
388.721	3.77
389.082	3.76
389.443	3.71
389.804	3.71
390.165	3.66
390.526	3.68
390.887	3.67
391.248	3.75
391.609	3.73
391.969	3.71
392.33	3.67
392.691	3.62
393.051	3.64
393.412	3.67
393.772	3.65
394.133	3.65
394.493	3.64
394.854	3.61
395.214	3.59
395.574	3.6
395.935	3.59
396.295	3.57
396.655	3.55
397.015	3.56
397.376	3.55
397.736	3.58
398.096	3.6
398.456	3.64
398.816	3.59
399.176	3.61
399.535	3.57
399.895	3.57
400.255	3.6
400.615	3.59
400.975	3.55
401.334	3.56
401.694	3.55
402.054	3.56
402.413	3.58
402.773	3.55
403.132	3.54
403.492	3.52
403.851	3.53
404.211	3.57
404.57	3.56
404.929	3.56
405.288	3.54
405.648	3.52
406.007	3.48
406.366	3.45
406.725	3.47
407.084	3.52
407.443	3.53
407.802	3.51
408.161	3.51
408.52	3.49
408.879	3.46
409.238	3.48
409.596	3.5
409.955	3.5
410.314	3.53
410.673	3.54
411.031	3.56
411.39	3.58
411.748	3.58
412.107	3.56
412.465	3.56
412.824	3.58
413.182	3.58
413.54	3.61
413.899	3.63
414.257	3.64
414.615	3.59
414.974	3.6
415.332	3.61
415.69	3.61
416.048	3.63
416.406	3.64
416.764	3.64
417.122	3.63
417.48	3.62
417.838	3.63
418.195	3.62
418.553	3.61
418.911	3.6
419.269	3.61
419.626	3.63
419.984	3.64
420.342	3.63
420.699	3.62
421.057	3.61
421.414	3.62
421.772	3.61
422.129	3.63
422.486	3.63
422.844	3.62
423.201	3.62
423.558	3.62
423.915	3.63
424.273	3.62
424.63	3.62
424.987	3.62
425.344	3.62
425.701	3.63
426.058	3.64
426.415	3.63
426.772	3.62
427.128	3.62
427.485	3.62
427.842	3.62
428.199	3.65
428.555	3.65
428.912	3.63
429.269	3.64
429.625	3.64
429.982	3.63
430.338	3.65
430.695	3.65
431.051	3.63
431.407	3.62
431.764	3.62
432.12	3.63
432.476	3.63
432.832	3.61
433.189	3.61
433.545	3.6
433.901	3.62
434.257	3.62
434.613	3.62
434.969	3.61
435.325	3.62
435.681	3.62
436.036	3.62
436.392	3.63
436.748	3.62
437.104	3.62
437.459	3.62
437.815	3.62
438.171	3.63
438.526	3.63
438.882	3.63
439.237	3.62
439.593	3.62
439.948	3.62
440.304	3.62
440.659	3.61
441.014	3.6
441.369	3.59
441.725	3.59
442.08	3.59
442.435	3.59
442.79	3.59
443.145	3.58
443.5	3.59
443.855	3.59
444.21	3.6
444.565	3.6
444.92	3.61
445.275	3.59
445.629	3.59
445.984	3.6
446.339	3.59
446.693	3.59
447.048	3.58
447.403	3.57
447.757	3.57
448.112	3.59
448.466	3.59
448.82	3.57
449.175	3.57
449.529	3.57
449.883	3.56
450.238	3.56
450.592	3.57
450.946	3.55
451.3	3.54
451.654	3.52
452.008	3.51
452.362	3.51
452.716	3.51
453.07	3.53
453.424	3.55
453.778	3.57
454.132	3.56
454.486	3.55
454.839	3.56
455.193	3.54
455.547	3.55
455.9	3.55
456.254	3.58
456.607	3.59
456.961	3.61
457.314	3.61
457.668	3.59
458.021	3.59
458.375	3.59
458.728	3.59
459.081	3.58
459.434	3.58
459.787	3.59
460.141	3.6
460.494	3.59
460.847	3.57
461.2	3.57
461.553	3.59
461.906	3.59
462.259	3.61
462.611	3.6
462.964	3.62
463.317	3.61
463.67	3.6
464.022	3.6
464.375	3.58
464.728	3.6
465.08	3.62
465.433	3.62
465.785	3.62
466.138	3.62
466.49	3.64
466.843	3.65
467.195	3.63
467.547	3.64
467.899	3.62
468.252	3.63
468.604	3.63
468.956	3.61
469.308	3.64
469.66	3.63
470.012	3.66
470.364	3.65
470.716	3.65
471.068	3.7
471.42	3.7
471.772	3.72
472.123	3.7
472.475	3.71
472.827	3.72
473.178	3.73
473.53	3.74
473.882	3.75
474.233	3.74
474.585	3.74
474.936	3.72
475.288	3.75
475.639	3.74
475.99	3.75
476.342	3.75
476.693	3.75
477.044	3.75
477.395	3.75
477.746	3.75
478.097	3.74
478.448	3.72
478.8	3.73
479.15	3.7
479.501	3.71
479.852	3.7
480.203	3.71
480.554	3.71
480.905	3.71
481.255	3.73
481.606	3.75
481.957	3.76
482.307	3.76
482.658	3.75
483.009	3.76
483.359	3.76
483.709	3.77
484.06	3.76
484.41	3.77
484.761	3.77
485.111	3.77
485.461	3.77
485.811	3.77
486.162	3.76
486.512	3.78
486.862	3.78
487.212	3.79
487.562	3.79
487.912	3.79
488.262	3.78
488.612	3.78
488.961	3.77
489.311	3.76
489.661	3.77
490.011	3.77
490.36	3.76
490.71	3.76
491.06	3.75
491.409	3.76
491.759	3.74
492.108	3.73
492.458	3.73
492.807	3.74
493.157	3.76
493.506	3.75
493.855	3.75
494.204	3.74
494.554	3.73
494.903	3.72
495.252	3.73
495.601	3.75
495.95	3.75
496.299	3.74
496.648	3.75
496.997	3.75
497.346	3.76
497.695	3.79
498.043	3.79
498.392	3.78
498.741	3.79
499.09	3.79
499.438	3.8
499.787	3.81
500.135	3.81
500.484	3.8
500.832	3.82
501.181	3.82
501.529	3.83
501.878	3.86
502.226	3.87
502.574	3.85
502.923	3.83
503.271	3.82
503.619	3.84
503.967	3.86
504.315	3.84
504.663	3.84
505.011	3.83
505.359	3.85
505.707	3.87
506.055	3.88
506.403	3.91
506.751	3.93
507.098	3.92
507.446	3.95
507.794	3.95
508.141	3.95
508.489	3.96
508.837	3.96
509.184	3.96
509.531	3.98
509.879	4
510.226	4.02
510.574	4.03
510.921	4.02
511.268	4
511.616	4.01
511.963	4.02
512.31	4.03
512.657	4.05
513.004	4.04
513.351	4.06
513.698	4.04
514.045	4.01
514.392	4.03
514.739	3.98
515.086	3.98
515.432	3.98
515.779	3.99
516.126	4
516.473	4.01
516.819	4
517.166	3.96
517.512	3.97
517.859	3.98
518.205	3.98
518.552	3.99
518.898	3.99
519.245	4
519.591	3.98
519.937	3.97
520.283	3.97
520.629	3.96
520.976	3.98
521.322	4
521.668	4
522.014	4.03
522.36	4.03
522.706	4.04
523.052	4.04
523.398	4.04
523.743	4.04
524.089	4.04
524.435	4.06
524.781	4.06
525.126	4.08
525.472	4.09
525.817	4.08
526.163	4.09
526.509	4.09
526.854	4.1
527.199	4.12
527.545	4.12
527.89	4.12
528.235	4.12
528.581	4.12
528.926	4.12
529.271	4.13
529.616	4.13
529.961	4.13
530.306	4.13
530.651	4.13
530.996	4.13
531.341	4.14
531.686	4.13
532.031	4.13
532.376	4.13
532.721	4.14
533.065	4.15
533.41	4.15
533.755	4.16
534.099	4.17
534.444	4.16
534.788	4.17
535.133	4.17
535.477	4.18
535.822	4.18
536.166	4.18
536.51	4.16
536.855	4.16
537.199	4.17
537.543	4.16
537.887	4.17
538.231	4.17
538.576	4.19
538.92	4.2
539.264	4.2
539.608	4.19
539.951	4.18
540.295	4.18
540.639	4.19
540.983	4.19
541.327	4.19
541.671	4.18
542.014	4.17
542.358	4.17
542.701	4.18
543.045	4.19
543.389	4.19
543.732	4.22
544.075	4.23
544.419	4.22
544.762	4.22
545.105	4.23
545.449	4.22
545.792	4.22
546.135	4.24
546.478	4.24
546.821	4.24
547.165	4.24
547.508	4.23
547.851	4.22
548.194	4.2
548.536	4.2
548.879	4.2
549.222	4.19
549.565	4.19
549.908	4.17
550.25	4.15
550.593	4.16
550.936	4.12
551.278	4.12
551.621	4.12
551.963	4.12
552.306	4.1
552.648	4.13
552.991	4.11
553.333	4.1
553.675	4.08
554.017	4.1
554.36	4.09
554.702	4.13
555.044	4.12
555.386	4.14
555.728	4.13
556.07	4.17
556.412	4.18
556.754	4.17
557.096	4.21
557.438	4.21
557.78	4.2
558.121	4.21
558.463	4.2
558.805	4.21
559.147	4.18
559.488	4.18
559.83	4.15
560.171	4.16
560.513	4.19
560.854	4.18
561.196	4.19
561.537	4.21
561.878	4.19
562.22	4.16
562.561	4.15
562.902	4.15
563.243	4.13
563.584	4.15
563.925	4.13
564.266	4.09
564.607	4.08
564.948	4.1
565.289	4.13
565.63	4.15
565.971	4.14
566.312	4.14
566.653	4.13
566.993	4.12
567.334	4.09
567.675	4.08
568.015	4.1
568.356	4.09
568.696	4.1
569.037	4.08
569.377	4.12
569.718	4.15
570.058	4.13
570.398	4.12
570.739	4.12
571.079	4.13
571.419	4.16
571.759	4.18
572.099	4.16
572.439	4.14
572.779	4.12
573.119	4.14
573.459	4.17
573.799	4.19
574.139	4.22
574.479	4.24
574.819	4.22
575.158	4.23
575.498	4.22
575.838	4.21
576.177	4.21
576.517	4.19
576.856	4.19
577.196	4.19
577.535	4.2
577.875	4.19
578.214	4.18
578.553	4.18
578.893	4.18
579.232	4.19
579.571	4.18
579.91	4.17
580.25	4.14
580.589	4.14
580.928	4.11
581.267	4.1
581.606	4.11
581.945	4.1
582.283	4.08
582.622	4.11
582.961	4.1
583.3	4.1
583.639	4.13
583.977	4.11
584.316	4.11
584.654	4.12
584.993	4.11
585.332	4.11
585.67	4.13
586.008	4.13
586.347	4.12
586.685	4.16
587.024	4.19
587.362	4.23
587.7	4.25
588.038	4.31
588.376	4.31
588.715	4.3
589.053	4.35
589.391	4.34
589.729	4.38
590.067	4.39
590.404	4.39
590.742	4.4
591.08	4.4
591.418	4.4
591.756	4.42
592.093	4.45
592.431	4.48
592.769	4.45
593.106	4.44
593.444	4.42
593.781	4.4
594.119	4.41
594.456	4.38
594.793	4.36
595.131	4.36
595.468	4.35
595.805	4.38
596.143	4.38
596.48	4.4
596.817	4.39
597.154	4.37
597.491	4.38
597.828	4.35
598.165	4.36
598.502	4.34
598.839	4.32
599.176	4.32
599.512	4.32
599.849	4.33
600.186	4.31
600.523	4.37
600.859	4.35
601.196	4.33
601.532	4.33
601.869	4.3
602.205	4.28
602.542	4.29
602.878	4.27
603.215	4.28
603.551	4.28
603.887	4.27
604.223	4.28
604.56	4.32
604.896	4.34
605.232	4.38
605.568	4.39
605.904	4.4
606.24	4.38
606.576	4.38
606.912	4.37
607.248	4.4
607.583	4.4
607.919	4.39
608.255	4.39
608.591	4.41
608.926	4.42
609.262	4.45
609.597	4.44
609.933	4.48
610.268	4.44
610.604	4.45
610.939	4.44
611.275	4.44
611.61	4.39
611.945	4.42
612.281	4.38
612.616	4.36
612.951	4.37
613.286	4.4
613.621	4.39
613.956	4.41
614.291	4.37
614.626	4.33
614.961	4.36
615.296	4.38
615.631	4.38
615.966	4.42
616.3	4.43
616.635	4.42
616.97	4.36
617.304	4.41
617.639	4.35
617.973	4.39
618.308	4.44
618.642	4.48
618.977	4.35
619.311	4.36
619.646	4.37
619.98	4.35
620.314	4.33
620.648	4.34
620.983	4.38
621.317	4.39
621.651	4.45
621.985	4.47
622.319	4.47
622.653	4.46
622.987	4.44
623.321	4.4
623.655	4.42
623.988	4.48
624.322	4.47
624.656	4.52
624.99	4.5
625.323	4.43
625.657	4.46
625.99	4.53
626.324	4.5
626.657	4.53
626.991	4.56
627.324	4.56
627.658	4.6
627.991	4.55
628.324	4.58
628.657	4.55
628.991	4.55
629.324	4.54
629.657	4.55
629.99	4.56
630.323	4.56
630.656	4.58
630.989	4.56
631.322	4.59
631.655	4.56
631.987	4.62
632.32	4.56
632.653	4.5
632.986	4.45
633.318	4.49
633.651	4.46
633.984	4.47
634.316	4.47
634.649	4.44
634.981	4.45
635.313	4.42
635.646	4.43
635.978	4.42
636.31	4.43
636.643	4.48
636.975	4.54
637.307	4.53
637.639	4.49
637.971	4.5
638.303	4.45
638.635	4.47
638.967	4.44
639.299	4.57
639.631	4.59
639.963	4.63
640.295	4.64
640.626	4.63
640.958	4.63
641.29	4.65
641.621	4.65
641.953	4.63
642.285	4.63
642.616	4.65
642.948	4.58
643.279	4.53
643.61	4.49
643.942	4.43
644.273	4.43
644.604	4.43
644.936	4.36
645.267	4.36
645.598	4.36
645.929	4.31
646.26	4.31
646.591	4.29
646.922	4.27
647.253	4.26
647.584	4.24
647.915	4.25
648.245	4.25
648.576	4.25
648.907	4.25
649.238	4.27
649.568	4.26
649.899	4.34
650.229	4.41
650.56	4.39
650.89	4.36
651.221	4.41
651.551	4.37
651.882	4.41
652.212	4.45
652.542	4.51
652.872	4.47
653.203	4.4
653.533	4.45
653.863	4.49
654.193	4.56
654.523	4.69
654.853	4.63
655.183	4.64
655.513	4.58
655.843	4.56
656.172	4.58
656.502	4.58
656.832	4.56
657.162	4.54
657.491	4.57
657.821	4.6
658.15	4.59
658.48	4.65
658.809	4.68
659.139	4.65
659.468	4.58
659.798	4.62
660.127	4.66
660.456	4.64
660.785	4.63
661.115	4.56
661.444	4.48
661.773	4.57
662.102	4.58
662.431	4.63
662.76	4.64
663.089	4.62
663.418	4.57
663.747	4.61
664.076	4.61
664.404	4.61
664.733	4.61
665.062	4.59
665.39	4.58
665.719	4.56
666.048	4.6
666.376	4.63
666.705	4.62
667.033	4.6
667.362	4.6
667.69	4.64
668.018	4.72
668.347	4.79
668.675	4.75
669.003	4.72
669.331	4.76
669.659	4.76
669.987	4.71
670.315	4.75
670.643	4.68
670.971	4.69
671.299	4.73
671.627	4.68
671.955	4.74
672.283	4.78
672.61	4.81
672.938	4.77
673.266	4.87
673.593	4.99
673.921	5.03
674.249	5.08
674.576	5.09
674.904	5
675.231	4.92
675.558	4.84
675.886	4.88
676.213	4.84
676.54	4.86
676.867	4.93
677.195	4.91
677.522	4.91
677.849	4.95
678.176	4.94
678.503	4.94
678.83	4.93
679.157	4.9
679.484	4.87
679.81	4.89
680.137	4.8
680.464	4.72
680.791	4.71
681.117	4.64
681.444	4.62
681.771	4.58
682.097	4.49
682.424	4.6
682.75	4.54
683.077	4.58
683.403	4.59
683.729	4.61
684.056	4.66
684.382	4.69
684.708	4.59
685.034	4.56
685.36	4.55
685.686	4.53
686.012	4.5
686.339	4.56
686.664	4.6
686.99	4.68
687.316	4.67
687.642	4.68
687.968	4.67
688.294	4.71
688.619	4.86
688.945	4.98
689.271	4.98
689.596	5.02
689.922	5.04
690.247	5.07
690.573	5.01
690.898	5
691.224	5.04
691.549	5.12
691.874	5.11
692.2	5.18
692.525	5.11
692.85	5.18
693.175	5.21
693.5	5.19
693.825	5.1
694.15	5.19
694.475	5.15
694.8	5.22
695.125	5.13
695.45	5.08
695.775	5.15
696.099	5.1
696.424	5.08
696.749	5.01
697.073	5.02
697.398	5
697.723	4.99
698.047	5
698.372	5.04
698.696	5.01
699.02	4.99
699.345	5.04
699.669	5.03
699.993	4.97
700.318	4.92
700.642	4.91
700.966	4.87
701.29	4.94
701.614	4.98
701.938	5.02
702.262	5.03
702.586	4.97
702.91	4.94
703.234	4.92
703.557	4.98
703.881	4.92
704.205	5.02
704.529	4.98
704.852	4.98
705.176	4.84
705.499	4.88
705.823	4.92
706.146	4.86
706.47	4.93
706.793	4.94
707.117	4.98
707.44	5.02
707.763	5.08
708.086	5.06
708.409	4.97
708.733	4.91
709.056	4.88
709.379	5.01
709.702	4.96
710.025	4.97
710.348	4.98
710.671	4.99
710.993	5.02
711.316	5.07
711.639	4.99
711.962	5
712.284	5
712.607	4.91
712.93	5.07
713.252	4.84
713.575	4.91
713.897	4.89
714.22	4.93
714.542	5
714.864	4.99
715.187	4.91
715.509	5.09
715.831	5.17
716.153	5.2
716.475	5.22
716.798	5.45
717.12	5.51
717.442	5.51
717.764	5.42
718.085	5.35
718.407	5.39
718.729	5.42
719.051	5.51
719.373	5.49
719.695	5.22
720.016	5.37
720.338	5.25
720.659	5.25
720.981	5.11
721.302	5.07
721.624	5.1
721.945	5.23
722.267	5.15
722.588	5.12
722.909	4.9
723.231	4.87
723.552	4.67
723.873	4.63
724.194	4.64
724.515	4.9
724.836	4.92
725.157	4.9
725.478	4.93
725.799	4.98
726.12	4.96
726.441	5.14
726.762	5.22
727.083	5.33
727.403	5.28
727.724	5.36
728.045	5.31
728.365	5.2
728.686	5.2
729.006	5.27
729.327	5.29
729.647	5.5
729.967	5.6
730.288	5.68
730.608	5.73
730.928	5.62
731.249	5.53
731.569	5.7
731.889	5.68
732.209	5.61
732.529	5.43
732.849	5.64
733.169	5.61
733.489	5.5
733.809	5.36
734.129	5.44
734.448	5.59
734.768	5.5
735.088	5.62
735.408	5.6
735.727	5.52
736.047	5.51
736.366	5.36
736.686	5.38
737.005	5.36
737.325	5.39
737.644	5.44
737.963	5.28
738.283	5.12
738.602	5.16
738.921	5.16
739.24	5.52
739.56	5.4
739.879	5.45
740.198	5.47
740.517	5.77
740.836	5.76
741.155	5.6
741.473	5.75
741.792	5.68
742.111	5.68
742.43	5.8
742.748	5.74
743.067	5.76
743.386	5.82
743.704	5.66
744.023	5.53
744.341	5.55
744.66	5.7
744.978	5.66
745.297	5.63
745.615	5.74
745.933	5.32
746.252	5.37
746.57	5.32
746.888	5.26
747.206	5.11
747.524	5.08
747.842	5.33
748.16	5.59
748.478	5.56
748.796	5.59
749.114	5.62
749.432	5.68
749.749	5.82
750.067	5.59
750.385	5.71
750.703	5.73
751.02	5.57
751.338	5.62
751.655	5.57
751.973	5.91
752.29	5.82
752.608	5.87
752.925	5.83
753.242	5.87
753.56	5.91
753.877	5.91
754.194	5.82
754.511	5.76
754.828	5.36
755.145	5.73
755.462	5.84
755.779	5.77
756.096	5.63
756.413	5.81
756.73	5.98
757.047	5.94
757.364	5.95
757.68	6.21
757.997	6.29
758.314	6.32
758.63	5.96
758.947	5.89
759.264	5.86
759.58	5.67
759.896	5.73
760.213	5.7
760.529	5.67
760.846	5.71
761.162	5.58
761.478	5.46
761.794	5.01
762.11	5.01
762.426	5.08
762.743	5.2
763.059	4.89
763.375	5.09
763.69	5.17
764.006	5.2
764.322	5.17
764.638	5.15
764.954	5.51
765.27	5.62
765.585	5.73
765.901	5.8
766.216	6.04
766.532	5.97
766.848	5.96
767.163	6.18
767.478	6.29
767.794	6.31
768.109	6.37
768.424	6.63
768.74	6.38
769.055	6.43
769.37	6.46
769.685	6.51
770	6.16
770.315	5.87
770.63	5.78
770.945	5.7
771.26	5.78
771.575	5.16
771.89	5
772.205	4.97
772.52	4.77
772.834	4.54
773.149	4.19
773.464	4.45
773.778	4.31
774.093	3.85
774.407	3.99
774.722	4.24
775.036	4.19
775.351	4.48
775.665	4.18
775.979	4.03
776.293	4.02
776.608	3.95
776.922	4.46
777.236	4.47
777.55	4.75
777.864	4.56
778.178	5.27
778.492	5.62
778.806	5.61
779.12	6.27
779.434	6.45
779.747	7.07
780.061	7.38
780.375	7.21
780.689	7.46
781.002	7.74
781.316	7.73
781.629	8.08
781.943	8.42
782.256	8.55
782.57	8.62
782.883	8.86
783.196	8.75
783.51	8.5
783.823	8.56
784.136	8.5
784.449	8.66
784.762	8.12
785.075	8.21
785.388	8.27
785.701	7.97
786.014	7.91
786.327	7.9
786.64	7.54
786.953	7.9
787.266	7.82
787.578	7.64
787.891	7.57
788.204	7.61
788.516	7.61
788.829	7.48
789.141	7.84
789.454	7.76
789.766	8.22
790.079	8.16
790.391	8.26
790.703	8.52
791.016	8.18
791.328	8.08
791.64	7.71
791.952	7.97
792.264	7.51
792.576	7.49
792.888	7.35
793.2	7.74
793.512	7.39
793.824	7.85
794.136	7.58
794.448	7.91
794.76	7.49
795.071	7.2
795.383	7.02
795.695	6.39
796.006	6.41
796.318	6.62
796.629	6.82
796.941	6.55
797.252	6.31
797.564	6.65
797.875	7.08
798.186	7.2
798.497	6.97
798.809	7.69
799.12	7.77
799.431	7.61
799.742	7.17
800.053	7.53
800.364	7.43
800.675	7.55
800.986	7.01
801.297	7.11
801.608	6.81
801.918	7.37
802.229	8.02
802.54	7.98
802.851	7.58
803.161	7.5
803.472	7.33
803.782	7.42
804.093	7.25
804.403	7.16
804.714	7.41
805.024	7.28
805.334	6.8
805.645	7.01
805.955	7.47
806.265	8.07
806.575	8.07
806.885	7.84
807.195	7.7
807.505	8.06
807.815	8.04
808.125	8.33
808.435	7.73
808.745	7.3
809.055	7.12
809.365	7.53
809.674	7.47
809.984	7.9
810.294	7.31
810.603	7.6
810.913	8.04
811.222	8
811.532	8.2
811.841	8.73
812.151	8.39
812.46	8.52
812.769	8.19
813.079	8
813.388	8.3
813.697	8.63
814.006	8.58
814.315	8.78
814.624	8.93
814.933	9.64
815.242	9.59
815.551	10.37
815.86	10.42
816.169	10.33
816.478	9.79
816.786	10.44
817.095	10.31
817.404	10.5
817.712	10.35
818.021	10.65
818.33	9.87
818.638	10
818.947	10.25
819.255	9.93
819.563	9.43
819.872	9.32
820.18	9.44
820.488	9.23
820.796	9.09
821.105	8.85
821.413	8.78
821.721	8.7
822.029	8.53
822.337	8.46
822.645	8.61
822.953	8.68
823.26	8.54
823.568	8.47
823.876	8.26
824.184	8.19
824.491	8.14
824.799	8.39
825.107	8.43
825.414	8.3
825.722	8.34
826.029	8.51
826.337	8.53
826.644	8.51
826.951	8.6
827.259	8.63
827.566	8.6
827.873	8.37
828.18	8.5
828.488	8.48
828.795	8.57
829.102	8.43
829.409	8.57
829.716	8.54
830.023	8.47
830.329	8.34
830.636	8.65
830.943	8.67
831.25	8.33
831.557	8.41
831.863	8.36
832.17	8.24
832.476	8.04
832.783	8.22
833.089	8.08
833.396	8.15
833.702	8.26
834.009	8.58
834.315	9.17
834.621	9.05
834.928	9.09
835.234	8.84
835.54	8.66
835.846	8.62
836.152	8.98
836.458	9.07
836.764	9.71
837.07	9.44
837.376	9.19
837.682	9.06
837.988	8.57
838.293	8.31
838.599	8.18
838.905	8.3
839.211	7.47
839.516	6.91
839.822	6.82
840.127	6.55
840.433	6.23
840.738	6.12
841.044	5.75
841.349	5.74
841.654	5.96
841.959	6.3
842.265	6.02
842.57	6.04
842.875	6.09
843.18	6.16
843.485	6.09
843.79	5.92
844.095	6.13
844.4	7.07
844.705	6.53
845.01	6.99
845.315	5.3
845.619	5.25
845.924	5.61
846.229	5.51
846.533	6.08
846.838	5.58
847.142	4.33
847.447	2.94
847.751	2.15
848.056	1.05
848.36	0.64
848.664	0.84
848.969	0.08
849.273	-0.73
849.577	-1.27
849.881	-0.58
850.185	1.07
850.489	1.7
850.794	-0.09
851.097	0.49
851.401	0.86
851.705	2.98
852.009	4.86
852.313	5.54
852.617	4.02
852.92	3.69
853.224	4.3
853.528	3.92
853.831	3.92
854.135	5.04
854.438	6.36
854.742	5.11
855.045	3.31
855.349	3.15
855.652	2.49
855.955	1.86
856.259	0.67
856.562	-1.46
856.865	-2
857.168	-0.67
857.471	1
857.774	1.83
858.077	3.93
858.38	2.45
858.683	2.23
858.986	3.21
859.289	1.84
859.592	1.26
859.894	2.32
860.197	5.24
860.5	4.76
860.802	3.65
861.105	4.89
861.407	4.73
861.71	6.09
862.012	6.32
862.315	6.14
862.617	6.46
862.919	9.02
863.222	8.22
863.524	7.66
863.826	7.51
864.128	5.69
864.43	3.19
864.732	4.4
865.034	4.49
865.336	2.38
865.638	1.51
865.94	0.01
866.242	-0.16
866.544	-0.8
866.846	0.01
867.147	-0.95
867.449	-0.61
867.751	1.38
868.052	2.2
868.354	2.66
868.655	1.91
868.957	1.32
869.258	-0.26
869.56	-0.51
869.861	-0.03
870.162	-1.78
870.463	-1.78
870.765	0.21
871.066	-2.14
871.367	-5.03
871.668	-0.32
871.969	0.24
872.27	2.11
872.571	-0.08
872.872	-1.21
873.173	-5.75
873.473	-2.79
873.774	-1.89
874.075	-1.9
874.376	-5.99
874.676	-3.74
874.977	-4.31
875.277	-0.85
875.578	0.68
875.878	1.1
876.179	0.68
876.479	0.79
876.78	0.59
877.08	-1.74
877.38	-0.22
877.68	2.38
877.981	-0.64
878.281	0.86
878.581	1.7
