Data from BA28301_Reflection_00014.txt Node
Date: Mon Nov 18 15:45:30 EST 2019
User: vgr7
Spectrometer: USB2G7710
Scans to average: 3
Trigger mode: 4
Integration Time (sec): 2.000000E-2
Electric dark correction enabled: true
Boxcar width: 10
XAxis mode: Wavelengths
Number of Pixels in Spectrum: 2048
>>>>>Begin Spectral Data<<<<<
177.721	-1440.64
178.105	-8614.29
178.488	807.89
178.871	-193.88
179.254	463.64
179.636	12.59
180.019	160.42
180.402	411.11
180.785	-318.25
181.168	-404.24
181.55	-75.64
181.933	78.95
182.316	194.57
182.698	173.49
183.081	129.56
183.463	170.53
183.846	144.4
184.228	138.61
184.611	164.61
184.993	208.92
185.376	218.32
185.758	295.39
186.14	528.82
186.522	591.36
186.904	-715.01
187.287	2200.84
187.669	-278.13
188.051	-148.24
188.433	-76.39
188.815	-206.84
189.197	-692.63
189.579	-83.23
189.961	-96.82
190.342	-31.42
190.724	-56.11
191.106	-66.51
191.488	-117.87
191.869	-33.93
192.251	-21.42
192.633	-10.53
193.014	-0.37
193.396	-61.25
193.777	-252.16
194.159	-723.53
194.54	-171.33
194.922	-186.23
195.303	-204.5
195.684	239.82
196.065	-66.3
196.447	3158.82
196.828	-2.72
197.209	65.13
197.59	-230.58
197.971	-1063.64
198.352	18.37
198.733	27.45
199.114	69.75
199.495	49.6
199.876	62.26
200.257	82.06
200.638	59.74
201.018	11.09
201.399	23
201.78	29.96
202.16	31.23
202.541	62.51
202.922	85
203.302	79.85
203.683	49.26
204.063	12.2
204.444	35.76
204.824	55.16
205.204	17.33
205.585	19.32
205.965	25.42
206.345	32.4
206.725	-78.46
207.106	197.56
207.486	57.45
207.866	30.86
208.246	71.76
208.626	149.52
209.006	124.06
209.386	116.24
209.766	92.57
210.145	55.87
210.525	44.17
210.905	184.18
211.285	30900
211.664	-872.48
212.044	114.55
212.424	-42.16
212.803	-91.38
213.183	-108.89
213.562	-59.02
213.942	-23.04
214.321	-37.04
214.701	-16.01
215.08	-19.25
215.459	-13.01
215.838	-12.72
216.218	-6.86
216.597	7.96
216.976	16.76
217.355	28.56
217.734	24.98
218.113	28.33
218.492	23.94
218.871	32.56
219.25	37.37
219.629	28.82
220.008	22.8
220.387	17.51
220.766	28.62
221.144	20.58
221.523	17.45
221.902	10.93
222.28	13.64
222.659	10.37
223.037	17.07
223.416	14.75
223.794	18.4
224.173	8.32
224.551	6.49
224.929	-0.36
225.308	-3.42
225.686	0.65
226.064	-2.62
226.442	-4.46
226.821	-2.47
227.199	-5.65
227.577	-3.33
227.955	-5.4
228.333	-4.99
228.711	-3.06
229.089	2.35
229.467	3.39
229.845	3.36
230.222	3.66
230.6	2.66
230.978	0.35
231.356	0.52
231.733	-0.33
232.111	2.03
232.488	2.91
232.866	3.94
233.243	5.03
233.621	3.77
233.998	2.77
234.376	2.28
234.753	2.52
235.13	4.61
235.508	4.74
235.885	5.16
236.262	4.4
236.639	3.92
237.016	1.74
237.393	2.04
237.77	2.84
238.147	2.59
238.524	2.89
238.901	3.55
239.278	3.68
239.655	4.18
240.032	3.66
240.409	2.89
240.785	2.23
241.162	1.34
241.539	1.64
241.915	1.68
242.292	1.39
242.668	1.32
243.045	1.01
243.421	0.99
243.798	1.06
244.174	1.31
244.551	1.39
244.927	1.57
245.303	1.66
245.679	1.65
246.056	1.85
246.432	1.84
246.808	2.09
247.184	2.04
247.56	1.81
247.936	1.91
248.312	2.11
248.688	2.25
249.064	2.25
249.44	2.25
249.815	2.4
250.191	2.53
250.567	2.62
250.943	2.35
251.318	2.36
251.694	2.37
252.069	2.28
252.445	2.23
252.82	1.99
253.196	1.97
253.571	1.92
253.947	1.79
254.322	1.63
254.697	1.49
255.073	1.87
255.448	1.82
255.823	1.7
256.198	1.61
256.573	1.62
256.948	1.84
257.323	1.98
257.698	1.97
258.073	1.99
258.448	1.96
258.823	2.16
259.198	2.2
259.573	2.27
259.948	2.33
260.322	2.39
260.697	2.31
261.072	2.27
261.446	2.33
261.821	2.16
262.195	2.27
262.57	2.22
262.944	2.07
263.319	1.95
263.693	1.89
264.067	1.91
264.442	1.91
264.816	1.71
265.19	1.63
265.564	1.76
265.938	1.64
266.313	1.53
266.687	1.72
267.061	1.85
267.435	1.8
267.809	1.7
268.183	1.61
268.556	1.84
268.93	1.96
269.304	1.95
269.678	2.05
270.051	2.02
270.425	2.12
270.799	2.14
271.172	2.17
271.546	2.38
271.919	2.3
272.293	2.38
272.666	2.56
273.04	2.48
273.413	2.36
273.787	2.38
274.16	2.48
274.533	2.28
274.906	2.22
275.279	2.17
275.653	2.21
276.026	2.25
276.399	2.24
276.772	2.2
277.145	2.07
277.518	2.16
277.891	2.21
278.263	2
278.636	1.95
279.009	1.87
279.382	1.74
279.755	1.71
280.127	1.75
280.5	1.86
280.872	1.83
281.245	1.82
281.617	1.92
281.99	2.03
282.362	2.11
282.735	1.91
283.107	1.84
283.479	1.87
283.852	1.88
284.224	1.85
284.596	1.86
284.968	2.01
285.34	2.07
285.713	2.06
286.085	2.17
286.457	2.3
286.829	2.41
287.201	2.45
287.572	2.39
287.944	2.3
288.316	2.24
288.688	2.33
289.06	2.3
289.431	2.2
289.803	2.1
290.175	2.17
290.546	2.29
290.918	2.39
291.289	2.44
291.661	2.43
292.032	2.5
292.403	2.51
292.775	2.61
293.146	2.59
293.517	2.63
293.889	2.79
294.26	2.64
294.631	2.66
295.002	2.55
295.373	2.66
295.744	2.76
296.115	2.77
296.486	2.76
296.857	2.77
297.228	2.9
297.599	3.03
297.97	2.94
298.34	3.05
298.711	3.01
299.082	3
299.452	3.18
299.823	3.32
300.194	3.42
300.564	3.25
300.935	3.34
301.305	3.38
301.676	3.34
302.046	3.52
302.416	3.58
302.787	3.72
303.157	3.67
303.527	3.71
303.897	3.82
304.267	3.93
304.637	4.04
305.008	4.07
305.378	4.11
305.748	4.16
306.117	3.98
306.487	4.16
306.857	4.22
307.227	4.15
307.597	4.03
307.967	4.05
308.336	4.28
308.706	4.38
309.076	4.44
309.445	4.35
309.815	4.34
310.184	4.44
310.554	4.57
310.923	4.73
311.293	4.72
311.662	4.73
312.031	4.77
312.401	4.73
312.77	4.77
313.139	4.78
313.508	4.83
313.877	5
314.246	4.96
314.616	5.09
314.985	5.07
315.353	5.26
315.722	5.31
316.091	5.33
316.46	5.12
316.829	5.14
317.198	5.33
317.567	5.45
317.935	5.51
318.304	5.58
318.672	5.6
319.041	5.8
319.41	5.75
319.778	5.75
320.147	5.89
320.515	5.88
320.883	5.86
321.252	6.06
321.62	6.09
321.988	6.14
322.357	5.97
322.725	5.98
323.093	5.95
323.461	6.1
323.829	6.16
324.197	6.35
324.565	6.42
324.933	6.4
325.301	6.41
325.669	6.47
326.037	6.41
326.405	6.53
326.772	6.58
327.14	6.67
327.508	6.74
327.875	6.74
328.243	6.86
328.61	6.82
328.978	6.82
329.346	7.05
329.713	7.09
330.08	7.15
330.448	7.17
330.815	7.02
331.182	6.91
331.55	6.84
331.917	6.91
332.284	7
332.651	7.02
333.018	7.06
333.385	7.14
333.752	7.17
334.119	7.1
334.486	7
334.853	7.05
335.22	7.06
335.587	7.31
335.954	7.36
336.32	7.43
336.687	7.48
337.054	7.29
337.42	7.39
337.787	7.57
338.153	7.62
338.52	7.83
338.886	7.79
339.253	7.92
339.619	7.98
339.986	7.97
340.352	8.05
340.718	8.12
341.084	8.14
341.451	8.18
341.817	8.31
342.183	8.29
342.549	8.32
342.915	8.45
343.281	8.34
343.647	8.35
344.013	8.4
344.379	8.37
344.745	8.41
345.11	8.44
345.476	8.42
345.842	8.49
346.208	8.5
346.573	8.6
346.939	8.62
347.304	8.46
347.67	8.51
348.035	8.52
348.401	8.46
348.766	8.47
349.132	8.41
349.497	8.28
349.862	8.37
350.228	8.45
350.593	8.26
350.958	8.32
351.323	8.32
351.688	8.37
352.053	8.45
352.418	8.57
352.783	8.49
353.148	8.36
353.513	8.31
353.878	8.38
354.243	8.4
354.608	8.34
354.972	8.46
355.337	8.41
355.702	8.4
356.066	8.5
356.431	8.46
356.795	8.57
357.16	8.64
357.524	8.6
357.889	8.55
358.253	8.68
358.618	8.69
358.982	8.68
359.346	8.58
359.71	8.53
360.075	8.5
360.439	8.55
360.803	8.56
361.167	8.55
361.531	8.51
361.895	8.47
362.259	8.41
362.623	8.39
362.987	8.4
363.351	8.42
363.714	8.37
364.078	8.31
364.442	8.26
364.806	8.25
365.169	8.27
365.533	8.23
365.896	8.18
366.26	8.04
366.623	8
366.987	8.01
367.35	7.97
367.714	7.93
368.077	7.85
368.44	7.84
368.803	7.86
369.167	7.73
369.53	7.72
369.893	7.78
370.256	7.74
370.619	7.6
370.982	7.44
371.345	7.35
371.708	7.32
372.071	7.24
372.434	7.14
372.797	7.09
373.159	7.01
373.522	6.94
373.885	6.96
374.247	6.87
374.61	6.85
374.973	6.77
375.335	6.68
375.698	6.63
376.06	6.6
376.423	6.52
376.785	6.5
377.147	6.47
377.51	6.41
377.872	6.38
378.234	6.37
378.596	6.4
378.958	6.33
379.321	6.35
379.683	6.28
380.045	6.25
380.407	6.2
380.769	6.21
381.13	6.18
381.492	6.14
381.854	6.12
382.216	6.01
382.578	5.93
382.939	5.89
383.301	5.82
383.663	5.74
384.024	5.68
384.386	5.73
384.747	5.68
385.109	5.65
385.47	5.61
385.832	5.6
386.193	5.57
386.554	5.57
386.916	5.49
387.277	5.48
387.638	5.47
387.999	5.42
388.36	5.38
388.721	5.34
389.082	5.32
389.443	5.26
389.804	5.27
390.165	5.26
390.526	5.24
390.887	5.18
391.248	5.16
391.609	5.15
391.969	5.03
392.33	4.96
392.691	4.92
393.051	4.84
393.412	4.77
393.772	4.72
394.133	4.67
394.493	4.65
394.854	4.6
395.214	4.54
395.574	4.49
395.935	4.44
396.295	4.39
396.655	4.28
397.015	4.27
397.376	4.21
397.736	4.16
398.096	4.14
398.456	4.16
398.816	4.14
399.176	4.07
399.535	4.04
399.895	4
400.255	3.94
400.615	3.92
400.975	3.94
401.334	3.9
401.694	3.88
402.054	3.82
402.413	3.82
402.773	3.78
403.132	3.75
403.492	3.78
403.851	3.74
404.211	3.76
404.57	3.69
404.929	3.68
405.288	3.66
405.648	3.64
406.007	3.61
406.366	3.57
406.725	3.61
407.084	3.63
407.443	3.59
407.802	3.59
408.161	3.57
408.52	3.54
408.879	3.53
409.238	3.53
409.596	3.54
409.955	3.5
410.314	3.49
410.673	3.48
411.031	3.42
411.39	3.42
411.748	3.39
412.107	3.41
412.465	3.42
412.824	3.4
413.182	3.36
413.54	3.34
413.899	3.33
414.257	3.27
414.615	3.21
414.974	3.22
415.332	3.17
415.69	3.15
416.048	3.11
416.406	3.11
416.764	3.07
417.122	3.04
417.48	2.99
417.838	2.99
418.195	3
418.553	2.98
418.911	2.96
419.269	2.95
419.626	2.93
419.984	2.9
420.342	2.88
420.699	2.85
421.057	2.84
421.414	2.82
421.772	2.81
422.129	2.81
422.486	2.8
422.844	2.81
423.201	2.79
423.558	2.78
423.915	2.76
424.273	2.74
424.63	2.72
424.987	2.74
425.344	2.71
425.701	2.68
426.058	2.68
426.415	2.66
426.772	2.65
427.128	2.62
427.485	2.63
427.842	2.64
428.199	2.63
428.555	2.63
428.912	2.64
429.269	2.65
429.625	2.66
429.982	2.63
430.338	2.63
430.695	2.63
431.051	2.62
431.407	2.63
431.764	2.65
432.12	2.65
432.476	2.64
432.832	2.65
433.189	2.65
433.545	2.65
433.901	2.65
434.257	2.65
434.613	2.67
434.969	2.67
435.325	2.67
435.681	2.66
436.036	2.63
436.392	2.62
436.748	2.61
437.104	2.59
437.459	2.59
437.815	2.58
438.171	2.59
438.526	2.61
438.882	2.6
439.237	2.6
439.593	2.62
439.948	2.6
440.304	2.59
440.659	2.59
441.014	2.6
441.369	2.59
441.725	2.59
442.08	2.59
442.435	2.57
442.79	2.56
443.145	2.56
443.5	2.56
443.855	2.55
444.21	2.54
444.565	2.54
444.92	2.53
445.275	2.52
445.629	2.52
445.984	2.5
446.339	2.48
446.693	2.46
447.048	2.44
447.403	2.44
447.757	2.45
448.112	2.43
448.466	2.41
448.82	2.4
449.175	2.38
449.529	2.37
449.883	2.38
450.238	2.37
450.592	2.38
450.946	2.36
451.3	2.36
451.654	2.35
452.008	2.33
452.362	2.32
452.716	2.33
453.07	2.33
453.424	2.34
453.778	2.34
454.132	2.34
454.486	2.34
454.839	2.33
455.193	2.3
455.547	2.3
455.9	2.31
456.254	2.32
456.607	2.33
456.961	2.33
457.314	2.33
457.668	2.33
458.021	2.32
458.375	2.34
458.728	2.34
459.081	2.33
459.434	2.33
459.787	2.34
460.141	2.34
460.494	2.33
460.847	2.36
461.2	2.36
461.553	2.37
461.906	2.38
462.259	2.4
462.611	2.43
462.964	2.44
463.317	2.45
463.67	2.45
464.022	2.46
464.375	2.48
464.728	2.47
465.08	2.48
465.433	2.49
465.785	2.48
466.138	2.5
466.49	2.55
466.843	2.57
467.195	2.57
467.547	2.6
467.899	2.61
468.252	2.61
468.604	2.63
468.956	2.61
469.308	2.63
469.66	2.62
470.012	2.61
470.364	2.61
470.716	2.61
471.068	2.62
471.42	2.62
471.772	2.62
472.123	2.63
472.475	2.63
472.827	2.65
473.178	2.68
473.53	2.68
473.882	2.67
474.233	2.66
474.585	2.66
474.936	2.63
475.288	2.63
475.639	2.61
475.99	2.59
476.342	2.59
476.693	2.58
477.044	2.59
477.395	2.58
477.746	2.58
478.097	2.59
478.448	2.59
478.8	2.6
479.15	2.57
479.501	2.57
479.852	2.57
480.203	2.55
480.554	2.55
480.905	2.54
481.255	2.54
481.606	2.54
481.957	2.55
482.307	2.55
482.658	2.55
483.009	2.55
483.359	2.56
483.709	2.58
484.06	2.58
484.41	2.58
484.761	2.58
485.111	2.59
485.461	2.59
485.811	2.59
486.162	2.59
486.512	2.6
486.862	2.6
487.212	2.6
487.562	2.61
487.912	2.62
488.262	2.62
488.612	2.63
488.961	2.63
489.311	2.64
489.661	2.65
490.011	2.66
490.36	2.67
490.71	2.68
491.06	2.69
491.409	2.69
491.759	2.7
492.108	2.71
492.458	2.72
492.807	2.72
493.157	2.74
493.506	2.77
493.855	2.8
494.204	2.82
494.554	2.85
494.903	2.85
495.252	2.86
495.601	2.91
495.95	2.94
496.299	2.96
496.648	3.01
496.997	3.04
497.346	3.07
497.695	3.11
498.043	3.11
498.392	3.15
498.741	3.19
499.09	3.22
499.438	3.28
499.787	3.32
500.135	3.36
500.484	3.39
500.832	3.41
501.181	3.43
501.529	3.47
501.878	3.54
502.226	3.59
502.574	3.65
502.923	3.69
503.271	3.73
503.619	3.77
503.967	3.8
504.315	3.85
504.663	3.91
505.011	3.96
505.359	4.03
505.707	4.05
506.055	4.09
506.403	4.15
506.751	4.2
507.098	4.25
507.446	4.34
507.794	4.38
508.141	4.45
508.489	4.53
508.837	4.59
509.184	4.62
509.531	4.72
509.879	4.79
510.226	4.85
510.574	4.91
510.921	4.96
511.268	5.02
511.616	5.09
511.963	5.16
512.31	5.22
512.657	5.3
513.004	5.39
513.351	5.48
513.698	5.54
514.045	5.61
514.392	5.7
514.739	5.76
515.086	5.87
515.432	5.95
515.779	6.01
516.126	6.11
516.473	6.18
516.819	6.24
517.166	6.31
517.512	6.39
517.859	6.47
518.205	6.58
518.552	6.66
518.898	6.75
519.245	6.83
519.591	6.9
519.937	6.98
520.283	7.07
520.629	7.17
520.976	7.3
521.322	7.42
521.668	7.52
522.014	7.65
522.36	7.76
522.706	7.89
523.052	8.04
523.398	8.18
523.743	8.33
524.089	8.47
524.435	8.63
524.781	8.77
525.126	8.9
525.472	9.02
525.817	9.14
526.163	9.23
526.509	9.33
526.854	9.43
527.199	9.54
527.545	9.64
527.89	9.73
528.235	9.8
528.581	9.9
528.926	10.01
529.271	10.11
529.616	10.23
529.961	10.34
530.306	10.47
530.651	10.58
530.996	10.72
531.341	10.86
531.686	10.99
532.031	11.12
532.376	11.28
532.721	11.44
533.065	11.61
533.41	11.8
533.755	11.99
534.099	12.18
534.444	12.36
534.788	12.56
535.133	12.74
535.477	12.93
535.822	13.14
536.166	13.35
536.51	13.57
536.855	13.8
537.199	14.04
537.543	14.26
537.887	14.53
538.231	14.79
538.576	15.05
538.92	15.31
539.264	15.58
539.608	15.82
539.951	16.04
540.295	16.25
540.639	16.46
540.983	16.66
541.327	16.86
541.671	17.05
542.014	17.25
542.358	17.46
542.701	17.65
543.045	17.86
543.389	18.07
543.732	18.26
544.075	18.49
544.419	18.71
544.762	18.96
545.105	19.2
545.449	19.44
545.792	19.69
546.135	19.95
546.478	20.22
546.821	20.54
547.165	20.84
547.508	21.16
547.851	21.43
548.194	21.74
548.536	22.07
548.879	22.41
549.222	22.72
549.565	23.06
549.908	23.42
550.25	23.75
550.593	24.11
550.936	24.47
551.278	24.82
551.621	25.17
551.963	25.5
552.306	25.83
552.648	26.14
552.991	26.5
553.333	26.83
553.675	27.16
554.017	27.44
554.36	27.74
554.702	28.04
555.044	28.37
555.386	28.67
555.728	28.99
556.07	29.27
556.412	29.57
556.754	29.86
557.096	30.2
557.438	30.52
557.78	30.83
558.121	31.16
558.463	31.48
558.805	31.81
559.147	32.09
559.488	32.38
559.83	32.7
560.171	32.92
560.513	33.22
560.854	33.5
561.196	33.83
561.537	34.14
561.878	34.37
562.22	34.62
562.561	34.82
562.902	35.05
563.243	35.33
563.584	35.6
563.925	35.86
564.266	36.04
564.607	36.24
564.948	36.45
565.289	36.67
565.63	36.82
565.971	36.95
566.312	37.13
566.653	37.29
566.993	37.48
567.334	37.67
567.675	37.85
568.015	38.08
568.356	38.23
568.696	38.42
569.037	38.66
569.377	38.89
569.718	39.1
570.058	39.27
570.398	39.45
570.739	39.58
571.079	39.77
571.419	39.96
571.759	40.15
572.099	40.34
572.439	40.47
572.779	40.63
573.119	40.86
573.459	41.09
573.799	41.23
574.139	41.39
574.479	41.61
574.819	41.74
575.158	41.82
575.498	41.98
575.838	42.14
576.177	42.25
576.517	42.37
576.856	42.51
577.196	42.69
577.535	42.81
577.875	42.97
578.214	43.07
578.553	43.22
578.893	43.34
579.232	43.46
579.571	43.65
579.91	43.81
580.25	43.94
580.589	44.05
580.928	44.3
581.267	44.4
581.606	44.42
581.945	44.59
582.283	44.78
582.622	44.94
582.961	45.03
583.3	45.18
583.639	45.32
583.977	45.48
584.316	45.54
584.654	45.64
584.993	45.8
585.332	45.88
585.67	46
586.008	46.14
586.347	46.2
586.685	46.34
587.024	46.47
587.362	46.59
587.7	46.67
588.038	46.73
588.376	46.86
588.715	47.01
589.053	47.05
589.391	47.05
589.729	47.08
590.067	47.11
590.404	47.11
590.742	47.21
591.08	47.3
591.418	47.47
591.756	47.59
592.093	47.71
592.431	47.87
592.769	47.93
593.106	47.91
593.444	48.03
593.781	48.04
594.119	48.09
594.456	48.14
594.793	48.17
595.131	48.23
595.468	48.26
595.805	48.37
596.143	48.44
596.48	48.54
596.817	48.62
597.154	48.65
597.491	48.73
597.828	48.76
598.165	48.78
598.502	48.8
598.839	48.77
599.176	48.74
599.512	48.81
599.849	48.88
600.186	49.01
600.523	49.05
600.859	49
601.196	49.06
601.532	49.1
601.869	49.15
602.205	49.17
602.542	49.18
602.878	49.15
603.215	49.21
603.551	49.22
603.887	49.27
604.223	49.33
604.56	49.43
604.896	49.49
605.232	49.54
605.568	49.54
605.904	49.65
606.24	49.75
606.576	49.79
606.912	49.83
607.248	49.83
607.583	49.86
607.919	50.02
608.255	50.06
608.591	50.1
608.926	50.17
609.262	50.23
609.597	50.4
609.933	50.54
610.268	50.59
610.604	50.68
610.939	50.75
611.275	50.82
611.61	50.82
611.945	50.86
612.281	50.86
612.616	50.94
612.951	50.93
613.286	50.93
613.621	50.89
613.956	50.89
614.291	51
614.626	51.06
614.961	51.05
615.296	51.12
615.631	51.21
615.966	51.17
616.3	51.18
616.635	51.15
616.97	51.09
617.304	51.1
617.639	51.15
617.973	51.14
618.308	51.14
618.642	51.17
618.977	51.18
619.311	51.32
619.646	51.39
619.98	51.45
620.314	51.53
620.648	51.62
620.983	51.75
621.317	51.71
621.651	51.77
621.985	51.79
622.319	51.81
622.653	51.78
622.987	51.77
623.321	51.8
623.655	51.81
623.988	51.84
624.322	51.85
624.656	51.92
624.99	51.97
625.323	51.99
625.657	51.97
625.99	51.99
626.324	51.96
626.657	51.94
626.991	51.97
627.324	51.91
627.658	51.9
627.991	51.92
628.324	51.91
628.657	51.9
628.991	51.94
629.324	51.96
629.657	51.97
629.99	52.09
630.323	52.07
630.656	52.06
630.989	52.05
631.322	52.07
631.655	51.97
631.987	51.93
632.32	52
632.653	52.07
632.986	52.14
633.318	52.1
633.651	52.1
633.984	52.15
634.316	52.12
634.649	52.22
634.981	52.21
635.313	52.45
635.646	52.44
635.978	52.44
636.31	52.47
636.643	52.53
636.975	52.54
637.307	52.58
637.639	52.53
637.971	52.53
638.303	52.57
638.635	52.58
638.967	52.68
639.299	52.71
639.631	52.65
639.963	52.6
640.295	52.64
640.626	52.68
640.958	52.69
641.29	52.84
641.621	52.86
641.953	52.8
642.285	52.73
642.616	52.8
642.948	52.83
643.279	52.83
643.61	52.9
643.942	52.88
644.273	52.89
644.604	52.99
644.936	52.97
645.267	53
645.598	53.02
645.929	53.04
646.26	53.02
646.591	53.07
646.922	53.03
647.253	53.14
647.584	53.18
647.915	53.19
648.245	53.22
648.576	53.19
648.907	53.16
649.238	53.09
649.568	53.14
649.899	53.17
650.229	53.18
650.56	53.18
650.89	53.25
651.221	53.28
651.551	53.29
651.882	53.39
652.212	53.44
652.542	53.52
652.872	53.5
653.203	53.46
653.533	53.49
653.863	53.56
654.193	53.42
654.523	53.46
654.853	53.38
655.183	53.28
655.513	53.17
655.843	53.16
656.172	53.18
656.502	53.25
656.832	53.28
657.162	53.3
657.491	53.3
657.821	53.18
658.15	53.17
658.48	53.2
658.809	53.24
659.139	53.2
659.468	53.18
659.798	53.14
660.127	53.15
660.456	53.19
660.785	53.17
661.115	53.22
661.444	53.16
661.773	53.26
662.102	53.28
662.431	53.34
662.76	53.49
663.089	53.45
663.418	53.35
663.747	53.29
664.076	53.3
664.404	53.26
664.733	53.39
665.062	53.34
665.39	53.35
665.719	53.32
666.048	53.31
666.376	53.33
666.705	53.39
667.033	53.32
667.362	53.28
667.69	53.39
668.018	53.41
668.347	53.39
668.675	53.43
669.003	53.47
669.331	53.6
669.659	53.68
669.987	53.71
670.315	53.65
670.643	53.65
670.971	53.71
671.299	53.72
671.627	53.85
671.955	53.85
672.283	53.93
672.61	53.91
672.938	54.06
673.266	54.02
673.593	54.05
673.921	54.23
674.249	54.38
674.576	54.2
674.904	54.22
675.231	54.32
675.558	54.23
675.886	54.19
676.213	54.09
676.54	53.95
676.867	53.92
677.195	54.08
677.522	54.14
677.849	54.04
678.176	54.04
678.503	53.83
678.83	53.92
679.157	53.94
679.484	53.94
679.81	53.93
680.137	53.95
680.464	53.92
680.791	53.86
681.117	53.77
681.444	53.89
681.771	53.85
682.097	53.82
682.424	53.95
682.75	54.03
683.077	53.9
683.403	53.87
683.729	53.83
684.056	53.71
684.382	53.59
684.708	53.57
685.034	53.53
685.36	53.56
685.686	53.56
686.012	53.29
686.339	53.26
686.664	53.11
686.99	53.04
687.316	52.97
687.642	52.97
687.968	52.95
688.294	52.8
688.619	52.84
688.945	52.88
689.271	52.77
689.596	52.76
689.922	52.97
690.247	53.09
690.573	53.02
690.898	53.01
691.224	53.03
691.549	53.07
691.874	53.12
692.2	53.18
692.525	53.1
692.85	53.19
693.175	53.16
693.5	53.14
693.825	53.25
694.15	53.21
694.475	53.18
694.8	53.17
695.125	53.39
695.45	53.41
695.775	53.3
696.099	53.42
696.424	53.44
696.749	53.31
697.073	53.25
697.398	53.37
697.723	53.42
698.047	53.53
698.372	53.54
698.696	53.61
699.02	53.61
699.345	53.65
699.669	53.7
699.993	53.77
700.318	53.87
700.642	53.96
700.966	54.03
701.29	54.15
701.614	54.22
701.938	54.26
702.262	54.3
702.586	54.29
702.91	54.1
703.234	54.09
703.557	54.14
703.881	54.23
704.205	54.33
704.529	54.31
704.852	54.24
705.176	54.3
705.499	54.41
705.823	54.47
706.146	54.28
706.47	54.29
706.793	54.28
707.117	54.13
707.44	53.92
707.763	54.23
708.086	54.11
708.409	54.03
708.733	53.88
709.056	53.84
709.379	53.9
709.702	53.87
710.025	53.73
710.348	53.85
710.671	53.91
710.993	54.08
711.316	54.13
711.639	54.1
711.962	53.93
712.284	53.68
712.607	53.71
712.93	53.89
713.252	53.92
713.575	53.98
713.897	54.09
714.22	54.23
714.542	53.99
714.864	54.13
715.187	54.19
715.509	54.06
715.831	54.06
716.153	54.15
716.475	54.22
716.798	54.38
717.12	54.61
717.442	54.53
717.764	54.25
718.085	54.31
718.407	54.33
718.729	54.47
719.051	54.54
719.373	54.28
719.695	54
720.016	53.87
720.338	53.87
720.659	54.04
720.981	53.88
721.302	53.9
721.624	53.71
721.945	53.68
722.267	53.72
722.588	53.78
722.909	53.78
723.231	53.73
723.552	53.59
723.873	53.18
724.194	53.05
724.515	53.47
724.836	53.27
725.157	53.21
725.478	52.99
725.799	53.06
726.12	53.38
726.441	53.88
726.762	54.02
727.083	53.9
727.403	53.77
727.724	53.75
728.045	53.67
728.365	53.74
728.686	53.79
729.006	53.8
729.327	53.79
729.647	53.66
729.967	53.7
730.288	54.01
730.608	53.86
730.928	53.97
731.249	53.59
731.569	53.64
731.889	53.82
732.209	53.93
732.529	53.64
732.849	53.6
733.169	53.52
733.489	53.66
733.809	53.81
734.129	53.78
734.448	53.81
734.768	53.91
735.088	53.91
735.408	53.68
735.727	53.91
736.047	53.97
736.366	54.15
736.686	54.18
737.005	54.21
737.325	54.33
737.644	54.48
737.963	54.43
738.283	54.4
738.602	54.42
738.921	54.43
739.24	54.69
739.56	54.38
739.879	54.22
740.198	54.01
740.517	54.17
740.836	54.15
741.155	54.17
741.473	54.17
741.792	54.43
742.111	54.56
742.43	54.33
742.748	54.1
743.067	54
743.386	54.07
743.704	53.7
744.023	54.1
744.341	54.05
744.66	54.4
744.978	54.4
745.297	54.3
745.615	54.37
745.933	54.54
746.252	54.97
746.57	55.17
746.888	55.14
747.206	54.86
747.524	54.97
747.842	55
748.16	55.14
748.478	54.78
748.796	54.79
749.114	55.16
749.432	55.24
749.749	55.35
750.067	55.28
750.385	55.39
750.703	55.14
751.02	54.85
751.338	54.58
751.655	54.68
751.973	54.74
752.29	54.98
752.608	54.99
752.925	54.86
753.242	54.79
753.56	54.66
753.877	54.59
754.194	54.28
754.511	54.29
754.828	54.02
755.145	54.24
755.462	54.11
755.779	53.99
756.096	54.04
756.413	53.91
756.73	54.08
757.047	54.14
757.364	54
757.68	54.04
757.997	54.31
758.314	54.54
758.63	54.45
758.947	54.43
759.264	54.05
759.58	54.3
759.896	54.16
760.213	54.23
760.529	54.16
760.846	54.23
761.162	54.17
761.478	54.22
761.794	54.16
762.11	54.23
762.426	54.17
762.743	54.17
763.059	54.2
763.375	54.29
763.69	54.2
764.006	54.38
764.322	54.52
764.638	54.53
764.954	54.44
765.27	54.49
765.585	54.37
765.901	54.86
766.216	54.61
766.532	54.45
766.848	54.37
767.163	54.55
767.478	54.73
767.794	54.83
768.109	55.01
768.424	55.04
768.74	55.42
769.055	55.51
769.37	55.37
769.685	55.46
770	55.48
770.315	55.36
770.63	55.13
770.945	55.08
771.26	54.61
771.575	54.75
771.89	54.76
772.205	54.49
772.52	53.99
772.834	54.27
773.149	54.76
773.464	54.88
773.778	54.6
774.093	54.69
774.407	54.75
774.722	54.54
775.036	54.22
775.351	54.13
775.665	54.43
775.979	54.9
776.293	54.71
776.608	54.37
776.922	54.84
777.236	54.7
777.55	54.49
777.864	54.87
778.178	54.67
778.492	54.6
778.806	54.53
779.12	54.87
779.434	55.05
779.747	54.99
780.061	55.16
780.375	55.64
780.689	55.61
781.002	55.73
781.316	55.39
781.629	55.35
781.943	55.14
782.256	54.57
782.57	54.18
782.883	54.29
783.196	54.33
783.51	54.22
783.823	54.73
784.136	54.93
784.449	54.53
784.762	54.74
785.075	54.7
785.388	55.22
785.701	55.34
786.014	54.57
786.327	54.71
786.64	55.05
786.953	54.99
787.266	54.56
787.578	54.2
787.891	54.53
788.204	55.14
788.516	55.71
788.829	55.62
789.141	56.07
789.454	56.33
789.766	56.34
790.079	56.35
790.391	56.04
790.703	56.17
791.016	56.8
791.328	56.73
791.64	56.52
791.952	57
792.264	56.12
792.576	56.59
792.888	56.6
793.2	56.55
793.512	56.33
793.824	56.56
794.136	56.98
794.448	57.31
794.76	57.01
795.071	55.92
795.383	55.64
795.695	55.39
796.006	54.86
796.318	54.93
796.629	54.81
796.941	55.12
797.252	55.25
797.564	55.15
797.875	54.86
798.186	54.83
798.497	53.8
798.809	53.87
799.12	53.5
799.431	53.32
799.742	53.51
800.053	53.71
800.364	53.78
800.675	53.46
800.986	53.19
801.297	53.26
801.608	53.26
801.918	53.34
802.229	53.2
802.54	53.58
802.851	53.93
803.161	53.82
803.472	53.31
803.782	52.95
804.093	52.09
804.403	52.16
804.714	52.27
805.024	52.92
805.334	52.88
805.645	53.3
805.955	53.6
806.265	53.75
806.575	53.45
806.885	53.48
807.195	53.41
807.505	53.54
807.815	53.38
808.125	53.92
808.435	54.51
808.745	54.5
809.055	54.64
809.365	53.93
809.674	54
809.984	54.22
810.294	54.48
810.603	55.15
810.913	55.79
811.222	56.07
811.532	55.78
811.841	56.97
812.151	57.58
812.46	57.32
812.769	56.3
813.079	56.63
813.388	55.88
813.697	56.61
814.006	56.35
814.315	55.93
814.624	55.39
814.933	56.18
815.242	56.66
815.551	56.36
815.86	56.56
816.169	56.33
816.478	56.57
816.786	56.67
817.095	56.37
817.404	55.1
817.712	54.85
818.021	55.01
818.33	53.67
818.638	52.75
818.947	53
819.255	53.62
819.563	53.19
819.872	53.41
820.18	53.06
820.488	52.88
820.796	53.32
821.105	53.66
821.413	53.36
821.721	53.18
822.029	53.4
822.337	53.52
822.645	53.68
822.953	53.95
823.26	53.93
823.568	53.91
823.876	54.09
824.184	54.15
824.491	53.99
824.799	54.23
825.107	54.35
825.414	54.17
825.722	54.29
826.029	54.49
826.337	54.62
826.644	54.74
826.951	55.04
827.259	55.07
827.566	55.2
827.873	55.28
828.18	55.47
828.488	55.56
828.795	55.78
829.102	55.45
829.409	55.06
829.716	55.18
830.023	55.49
830.329	55.55
830.636	55.59
830.943	56.17
831.25	55.77
831.557	55.78
831.863	56.09
832.17	55.33
832.476	55.34
832.783	55.42
833.089	55.68
833.396	55.64
833.702	55.65
834.009	55.07
834.315	55.05
834.621	55.2
834.928	54.73
835.234	54.5
835.54	55.28
835.846	55.35
836.152	55.14
836.458	54.81
836.764	54.61
837.07	54.93
837.376	54.25
837.682	55.02
837.988	55.14
838.293	55.27
838.599	56.2
838.905	55.99
839.211	55.73
839.516	55.14
839.822	54.74
840.127	53.66
840.433	53.82
840.738	53.86
841.044	53.24
841.349	53.67
841.654	54.05
841.959	54.29
842.265	54.35
842.57	54.48
842.875	55.23
843.18	55.86
843.485	55.89
843.79	57.32
844.095	56.68
844.4	57.52
844.705	57.88
845.01	56.68
845.315	57.05
845.619	58.98
845.924	60.11
846.229	60.8
846.533	63.12
846.838	62.28
847.142	62.92
847.447	62.49
847.751	62.61
848.056	60.54
848.36	60.35
848.664	60.85
848.969	61.54
849.273	60.46
849.577	59.3
849.881	58.02
850.185	57.94
850.489	57.72
850.794	54.3
851.097	53.03
851.401	53.09
851.705	52.92
852.009	48.94
852.313	48.08
852.617	48.95
852.92	49.47
853.224	50.99
853.528	50.44
853.831	50.7
854.135	49.36
854.438	51.22
854.742	47.5
855.045	48.35
855.349	45.94
855.652	46.08
855.955	47.59
856.259	48.54
856.562	48.51
856.865	49.3
857.168	50.7
857.471	52.58
857.774	54.15
858.077	54.33
858.38	55.95
858.683	56.76
858.986	54.45
859.289	55.1
859.592	54.07
859.894	57.22
860.197	57.12
860.5	58.92
860.802	57.36
861.105	60.27
861.407	56.38
861.71	55.32
862.012	57.49
862.315	56.44
862.617	55.34
862.919	53.74
863.222	52.98
863.524	53.66
863.826	53.3
864.128	51.83
864.43	51.82
864.732	54.43
865.034	52.46
865.336	53.04
865.638	51.36
865.94	50.52
866.242	47.47
866.544	48.87
866.846	48.42
867.147	49.18
867.449	50.41
867.751	54.05
868.052	54.69
868.354	53.16
868.655	53.52
868.957	54.57
869.258	56.81
869.56	57.53
869.861	56.99
870.162	57.77
870.463	58.08
870.765	60.08
871.066	58.47
871.367	58.08
871.668	56.15
871.969	56.16
872.27	58.89
872.571	59.55
872.872	60.6
873.173	58.62
873.473	55.41
873.774	52.45
874.075	50.51
874.376	52.93
874.676	55.15
874.977	55.12
875.277	55.19
875.578	53.63
875.878	53.01
876.179	54.05
876.479	51.88
876.78	52.1
877.08	50.05
877.38	48.98
877.68	51.28
877.981	53.7
878.281	52.65
878.581	52.75
