Data from BA28308_Reflection_00002.txt Node
Date: Mon Nov 18 15:38:39 EST 2019
User: vgr7
Spectrometer: USB2G7710
Scans to average: 3
Trigger mode: 4
Integration Time (sec): 2.000000E-2
Electric dark correction enabled: true
Boxcar width: 10
XAxis mode: Wavelengths
Number of Pixels in Spectrum: 2048
>>>>>Begin Spectral Data<<<<<
177.721	166.59
178.105	100
178.488	127.07
178.871	70.75
179.254	94.99
179.636	-7.14
180.019	69.42
180.402	123.53
180.785	6.32
181.168	19.73
181.55	58.25
181.933	58.32
182.316	84.74
182.698	92.64
183.081	71.66
183.463	80.53
183.846	117.87
184.228	134.45
184.611	104.1
184.993	136.98
185.376	136.35
185.758	277.4
186.14	522.43
186.522	328.02
186.904	276.91
187.287	363.29
187.669	443.01
188.051	750.13
188.433	-792.76
188.815	-216.8
189.197	-190.21
189.579	-250.16
189.961	-151.04
190.342	-154.39
190.724	-136.03
191.106	-131.73
191.488	-110.25
191.869	-115.41
192.251	-140.27
192.633	-150.84
193.014	-234.41
193.396	-339.06
193.777	-434.94
194.159	-504.56
194.54	-310.58
194.922	-283.42
195.303	-303.31
195.684	-270.79
196.065	-216.26
196.447	-217.36
196.828	-240.11
197.209	-221.66
197.59	-218.53
197.971	-276.44
198.352	-212.84
198.733	-360.79
199.114	-429.12
199.495	-406.26
199.876	-331.89
200.257	-287.49
200.638	-212.72
201.018	-230.38
201.399	-203.37
201.78	-152.43
202.16	-190.73
202.541	-232.39
202.922	-340.95
203.302	-295.91
203.683	-305.07
204.063	-651.01
204.444	-853.87
204.824	-924.52
205.204	-2568.09
205.585	-86042.86
205.965	8453.85
206.345	706.51
206.725	593.92
207.106	370.85
207.486	363.42
207.866	388.95
208.246	471.78
208.626	416.15
209.006	1262.03
209.386	817.29
209.766	884.15
210.145	756.09
210.525	-10845.95
210.905	-428.43
211.285	-1201.89
211.664	-1302.01
212.044	-572.29
212.424	-212.96
212.803	-151.2
213.183	-51.57
213.562	-25.48
213.942	-30.16
214.321	-19.41
214.701	-29.11
215.08	-43.31
215.459	-24.82
215.838	-22.95
216.218	-35.23
216.597	-45.41
216.976	-51.5
217.355	-37.26
217.734	-39.84
218.113	-53.45
218.492	-62.35
218.871	-94.85
219.25	-75.15
219.629	-86.43
220.008	-111.51
220.387	-115.56
220.766	-148.28
221.144	-213.94
221.523	-237.87
221.902	-326.24
222.28	-365.03
222.659	-329.16
223.037	-152.17
223.416	-142.67
223.794	-140.56
224.173	-92.95
224.551	-77.26
224.929	-66.81
225.308	-60.42
225.686	-47.91
226.064	-35.95
226.442	-33.38
226.821	-21.62
227.199	-19.08
227.577	-15.47
227.955	-14.73
228.333	-16.03
228.711	-10.01
229.089	-4.39
229.467	-4.51
229.845	-4.13
230.222	-5.36
230.6	-6.86
230.978	-9.66
231.356	-7.27
231.733	-4.15
232.111	-5.25
232.488	-2.63
232.866	-1.42
233.243	-2.22
233.621	-3.59
233.998	-3.69
234.376	-5.93
234.753	-8.32
235.13	-7.3
235.508	-6.6
235.885	-6.3
236.262	-6.52
236.639	-7.52
237.016	-7.33
237.393	-6.11
237.77	-4.46
238.147	-2.7
238.524	-0.66
238.901	0.59
239.278	0.11
239.655	0.3
240.032	0.99
240.409	0.13
240.785	0.27
241.162	1.04
241.539	0.96
241.915	1.14
242.292	1.37
242.668	1.87
243.045	1.87
243.421	1.77
243.798	2.03
244.174	2.43
244.551	2.45
244.927	2.18
245.303	2.35
245.679	2.55
246.056	2.65
246.432	2.41
246.808	2.6
247.184	2.8
247.56	2.78
247.936	2.74
248.312	2.95
248.688	3.02
249.064	2.76
249.44	2.84
249.815	2.98
250.191	3.1
250.567	3.06
250.943	2.79
251.318	2.96
251.694	3.2
252.069	3.26
252.445	3.24
252.82	3.24
253.196	3.18
253.571	2.96
253.947	3.14
254.322	3.43
254.697	3.27
255.073	2.81
255.448	2.61
255.823	2.62
256.198	2.94
256.573	2.82
256.948	3.11
257.323	3.32
257.698	3.15
258.073	3.18
258.448	3.27
258.823	3.52
259.198	3.58
259.573	3.31
259.948	3.2
260.322	3.1
260.697	3.29
261.072	3.33
261.446	3.3
261.821	3.16
262.195	3.12
262.57	3.05
262.944	3.32
263.319	3.34
263.693	3.17
264.067	3.11
264.442	3.21
264.816	3.08
265.19	2.9
265.564	3.09
265.938	3.12
266.313	3.05
266.687	3.03
267.061	2.82
267.435	3.05
267.809	3.15
268.183	3.37
268.556	3.25
268.93	3.15
269.304	3.1
269.678	3.15
270.051	3.14
270.425	3.13
270.799	3.06
271.172	3.13
271.546	3.32
271.919	3.03
272.293	2.92
272.666	2.99
273.04	3.16
273.413	3.03
273.787	3.01
274.16	2.95
274.533	2.92
274.906	3.05
275.279	2.94
275.653	2.98
276.026	2.92
276.399	2.9
276.772	3.04
277.145	3.06
277.518	3.07
277.891	3.1
278.263	3.03
278.636	2.86
279.009	2.71
279.382	2.64
279.755	2.74
280.127	2.94
280.5	2.97
280.872	2.99
281.245	3
281.617	3.09
281.99	3.25
282.362	3.38
282.735	3.21
283.107	3.23
283.479	3.11
283.852	3.06
284.224	3.1
284.596	3.02
284.968	3.11
285.34	3.12
285.713	3.16
286.085	3.2
286.457	3.38
286.829	3.5
287.201	3.54
287.572	3.57
287.944	3.47
288.316	3.48
288.688	3.46
289.06	3.38
289.431	3.31
289.803	3.27
290.175	3.25
290.546	3.47
290.918	3.47
291.289	3.52
291.661	3.57
292.032	3.53
292.403	3.38
292.775	3.4
293.146	3.35
293.517	3.3
293.889	3.45
294.26	3.41
294.631	3.46
295.002	3.47
295.373	3.54
295.744	3.54
296.115	3.55
296.486	3.36
296.857	3.38
297.228	3.5
297.599	3.41
297.97	3.4
298.34	3.33
298.711	3.46
299.082	3.48
299.452	3.47
299.823	3.64
300.194	3.68
300.564	3.61
300.935	3.67
301.305	3.65
301.676	3.69
302.046	3.7
302.416	3.7
302.787	3.71
303.157	3.65
303.527	3.69
303.897	3.73
304.267	3.89
304.637	3.91
305.008	3.75
305.378	3.89
305.748	3.78
306.117	3.58
306.487	3.53
306.857	3.47
307.227	3.51
307.597	3.37
307.967	3.32
308.336	3.29
308.706	3.18
309.076	3.27
309.445	3.1
309.815	3.03
310.184	3.01
310.554	2.96
310.923	2.91
311.293	2.91
311.662	2.86
312.031	2.77
312.401	2.84
312.77	2.92
313.139	2.91
313.508	3.03
313.877	3.13
314.246	3.01
314.616	3.01
314.985	2.92
315.353	2.82
315.722	2.93
316.091	2.97
316.46	2.95
316.829	2.91
317.198	2.99
317.567	2.99
317.935	2.9
318.304	2.85
318.672	2.85
319.041	2.85
319.41	2.75
319.778	2.88
320.147	2.8
320.515	2.64
320.883	2.56
321.252	2.58
321.62	2.71
321.988	2.62
322.357	2.61
322.725	2.66
323.093	2.72
323.461	2.63
323.829	2.57
324.197	2.59
324.565	2.61
324.933	2.62
325.301	2.66
325.669	2.69
326.037	2.65
326.405	2.57
326.772	2.65
327.14	2.73
327.508	2.71
327.875	2.66
328.243	2.83
328.61	2.81
328.978	2.72
329.346	2.62
329.713	2.6
330.08	2.67
330.448	2.53
330.815	2.49
331.182	2.58
331.55	2.6
331.917	2.78
332.284	2.73
332.651	2.68
333.018	2.67
333.385	2.58
333.752	2.74
334.119	2.85
334.486	2.63
334.853	2.58
335.22	2.53
335.587	2.55
335.954	2.51
336.32	2.5
336.687	2.45
337.054	2.48
337.42	2.57
337.787	2.64
338.153	2.88
338.52	2.93
338.886	2.95
339.253	2.92
339.619	2.81
339.986	2.85
340.352	2.94
340.718	2.85
341.084	2.96
341.451	3.01
341.817	3.09
342.183	3.14
342.549	3.13
342.915	3.15
343.281	3.27
343.647	3.22
344.013	3.21
344.379	3.24
344.745	3.24
345.11	3.28
345.476	3.26
345.842	3.12
346.208	3.08
346.573	3.08
346.939	3.13
347.304	3.08
347.67	3.02
348.035	2.91
348.401	3
348.766	2.92
349.132	2.8
349.497	2.8
349.862	2.9
350.228	2.97
350.593	2.99
350.958	2.9
351.323	2.94
351.688	2.98
352.053	3.09
352.418	3.11
352.783	3.13
353.148	3.06
353.513	3.07
353.878	3.13
354.243	3.23
354.608	3.3
354.972	3.33
355.337	3.44
355.702	3.52
356.066	3.54
356.431	3.58
356.795	3.6
357.16	3.46
357.524	3.41
357.889	3.35
358.253	3.35
358.618	3.44
358.982	3.39
359.346	3.33
359.71	3.27
360.075	3.25
360.439	3.26
360.803	3.3
361.167	3.34
361.531	3.33
361.895	3.24
362.259	3.14
362.623	3.17
362.987	3.13
363.351	3.1
363.714	3.11
364.078	3.11
364.442	3.02
364.806	3.09
365.169	3.12
365.533	3.13
365.896	3.14
366.26	3.06
366.623	3.09
366.987	3.17
367.35	3.14
367.714	3.2
368.077	3.14
368.44	3.09
368.803	3.1
369.167	3.02
369.53	3.02
369.893	3.09
370.256	3.1
370.619	3.13
370.982	3.12
371.345	3.04
371.708	3.04
372.071	3.08
372.434	3.05
372.797	3.06
373.159	3.06
373.522	3.04
373.885	3.05
374.247	3.07
374.61	3.03
374.973	3.08
375.335	2.96
375.698	2.99
376.06	2.97
376.423	2.98
376.785	3.03
377.147	3.09
377.51	3.08
377.872	3.1
378.234	3.07
378.596	3.06
378.958	3.11
379.321	3.18
379.683	3.22
380.045	3.26
380.407	3.23
380.769	3.24
381.13	3.21
381.492	3.21
381.854	3.19
382.216	3.22
382.578	3.2
382.939	3.24
383.301	3.23
383.663	3.19
384.024	3.15
384.386	3.2
384.747	3.21
385.109	3.25
385.47	3.22
385.832	3.21
386.193	3.21
386.554	3.19
386.916	3.18
387.277	3.18
387.638	3.15
387.999	3.14
388.36	3.13
388.721	3.16
389.082	3.18
389.443	3.14
389.804	3.11
390.165	3.14
390.526	3.19
390.887	3.19
391.248	3.25
391.609	3.28
391.969	3.23
392.33	3.19
392.691	3.15
393.051	3.2
393.412	3.23
393.772	3.22
394.133	3.21
394.493	3.17
394.854	3.16
395.214	3.17
395.574	3.19
395.935	3.22
396.295	3.24
396.655	3.21
397.015	3.27
397.376	3.31
397.736	3.29
398.096	3.26
398.456	3.27
398.816	3.25
399.176	3.21
399.535	3.22
399.895	3.24
400.255	3.27
400.615	3.24
400.975	3.22
401.334	3.23
401.694	3.26
402.054	3.25
402.413	3.25
402.773	3.23
403.132	3.22
403.492	3.24
403.851	3.25
404.211	3.28
404.57	3.26
404.929	3.24
405.288	3.23
405.648	3.2
406.007	3.21
406.366	3.23
406.725	3.24
407.084	3.27
407.443	3.25
407.802	3.24
408.161	3.25
408.52	3.26
408.879	3.26
409.238	3.25
409.596	3.27
409.955	3.28
410.314	3.33
410.673	3.34
411.031	3.31
411.39	3.3
411.748	3.28
412.107	3.3
412.465	3.28
412.824	3.28
413.182	3.28
413.54	3.28
413.899	3.29
414.257	3.3
414.615	3.31
414.974	3.34
415.332	3.31
415.69	3.29
416.048	3.28
416.406	3.29
416.764	3.3
417.122	3.3
417.48	3.3
417.838	3.28
418.195	3.26
418.553	3.27
418.911	3.26
419.269	3.27
419.626	3.26
419.984	3.26
420.342	3.26
420.699	3.25
421.057	3.26
421.414	3.23
421.772	3.23
422.129	3.21
422.486	3.21
422.844	3.21
423.201	3.2
423.558	3.21
423.915	3.21
424.273	3.21
424.63	3.19
424.987	3.18
425.344	3.17
425.701	3.17
426.058	3.16
426.415	3.16
426.772	3.15
427.128	3.14
427.485	3.14
427.842	3.14
428.199	3.15
428.555	3.15
428.912	3.18
429.269	3.18
429.625	3.2
429.982	3.18
430.338	3.18
430.695	3.17
431.051	3.16
431.407	3.16
431.764	3.15
432.12	3.16
432.476	3.16
432.832	3.18
433.189	3.18
433.545	3.17
433.901	3.16
434.257	3.15
434.613	3.16
434.969	3.16
435.325	3.16
435.681	3.18
436.036	3.15
436.392	3.14
436.748	3.12
437.104	3.11
437.459	3.11
437.815	3.11
438.171	3.11
438.526	3.13
438.882	3.11
439.237	3.12
439.593	3.12
439.948	3.13
440.304	3.12
440.659	3.12
441.014	3.11
441.369	3.11
441.725	3.12
442.08	3.12
442.435	3.12
442.79	3.12
443.145	3.11
443.5	3.11
443.855	3.12
444.21	3.12
444.565	3.14
444.92	3.16
445.275	3.15
445.629	3.16
445.984	3.14
446.339	3.15
446.693	3.13
447.048	3.13
447.403	3.12
447.757	3.12
448.112	3.13
448.466	3.13
448.82	3.14
449.175	3.16
449.529	3.16
449.883	3.17
450.238	3.16
450.592	3.16
450.946	3.16
451.3	3.16
451.654	3.16
452.008	3.15
452.362	3.13
452.716	3.14
453.07	3.12
453.424	3.13
453.778	3.14
454.132	3.14
454.486	3.15
454.839	3.14
455.193	3.15
455.547	3.15
455.9	3.17
456.254	3.18
456.607	3.17
456.961	3.16
457.314	3.14
457.668	3.14
458.021	3.13
458.375	3.14
458.728	3.13
459.081	3.14
459.434	3.14
459.787	3.14
460.141	3.14
460.494	3.15
460.847	3.14
461.2	3.13
461.553	3.13
461.906	3.12
462.259	3.13
462.611	3.13
462.964	3.12
463.317	3.1
463.67	3.09
464.022	3.09
464.375	3.09
464.728	3.11
465.08	3.11
465.433	3.11
465.785	3.1
466.138	3.1
466.49	3.1
466.843	3.08
467.195	3.08
467.547	3.1
467.899	3.09
468.252	3.08
468.604	3.1
468.956	3.11
469.308	3.12
469.66	3.12
470.012	3.14
470.364	3.15
470.716	3.15
471.068	3.14
471.42	3.13
471.772	3.14
472.123	3.13
472.475	3.14
472.827	3.16
473.178	3.17
473.53	3.17
473.882	3.16
474.233	3.19
474.585	3.19
474.936	3.18
475.288	3.17
475.639	3.18
475.99	3.18
476.342	3.17
476.693	3.16
477.044	3.17
477.395	3.16
477.746	3.15
478.097	3.16
478.448	3.18
478.8	3.2
479.15	3.21
479.501	3.22
479.852	3.23
480.203	3.23
480.554	3.24
480.905	3.25
481.255	3.26
481.606	3.27
481.957	3.26
482.307	3.27
482.658	3.29
483.009	3.3
483.359	3.29
483.709	3.3
484.06	3.3
484.41	3.31
484.761	3.31
485.111	3.31
485.461	3.32
485.811	3.32
486.162	3.32
486.512	3.32
486.862	3.33
487.212	3.32
487.562	3.32
487.912	3.31
488.262	3.31
488.612	3.3
488.961	3.31
489.311	3.3
489.661	3.31
490.011	3.3
490.36	3.3
490.71	3.31
491.06	3.31
491.409	3.3
491.759	3.3
492.108	3.31
492.458	3.31
492.807	3.31
493.157	3.3
493.506	3.29
493.855	3.28
494.204	3.26
494.554	3.29
494.903	3.27
495.252	3.28
495.601	3.29
495.95	3.29
496.299	3.27
496.648	3.28
496.997	3.26
497.346	3.27
497.695	3.26
498.043	3.25
498.392	3.24
498.741	3.26
499.09	3.24
499.438	3.23
499.787	3.23
500.135	3.23
500.484	3.25
500.832	3.25
501.181	3.26
501.529	3.26
501.878	3.25
502.226	3.26
502.574	3.27
502.923	3.29
503.271	3.29
503.619	3.3
503.967	3.32
504.315	3.31
504.663	3.32
505.011	3.32
505.359	3.32
505.707	3.33
506.055	3.33
506.403	3.34
506.751	3.35
507.098	3.36
507.446	3.35
507.794	3.34
508.141	3.34
508.489	3.35
508.837	3.35
509.184	3.34
509.531	3.35
509.879	3.35
510.226	3.36
510.574	3.36
510.921	3.37
511.268	3.36
511.616	3.38
511.963	3.41
512.31	3.42
512.657	3.45
513.004	3.46
513.351	3.44
513.698	3.45
514.045	3.44
514.392	3.44
514.739	3.46
515.086	3.47
515.432	3.47
515.779	3.47
516.126	3.47
516.473	3.5
516.819	3.51
517.166	3.51
517.512	3.51
517.859	3.51
518.205	3.5
518.552	3.5
518.898	3.5
519.245	3.5
519.591	3.49
519.937	3.49
520.283	3.49
520.629	3.51
520.976	3.51
521.322	3.51
521.668	3.51
522.014	3.52
522.36	3.51
522.706	3.51
523.052	3.53
523.398	3.53
523.743	3.51
524.089	3.52
524.435	3.52
524.781	3.53
525.126	3.55
525.472	3.57
525.817	3.56
526.163	3.56
526.509	3.56
526.854	3.57
527.199	3.57
527.545	3.57
527.89	3.57
528.235	3.58
528.581	3.59
528.926	3.6
529.271	3.59
529.616	3.6
529.961	3.61
530.306	3.6
530.651	3.61
530.996	3.62
531.341	3.62
531.686	3.62
532.031	3.62
532.376	3.62
532.721	3.62
533.065	3.64
533.41	3.65
533.755	3.66
534.099	3.65
534.444	3.65
534.788	3.65
535.133	3.64
535.477	3.64
535.822	3.64
536.166	3.64
536.51	3.65
536.855	3.66
537.199	3.65
537.543	3.64
537.887	3.63
538.231	3.63
538.576	3.64
538.92	3.66
539.264	3.66
539.608	3.67
539.951	3.66
540.295	3.65
540.639	3.65
540.983	3.65
541.327	3.66
541.671	3.67
542.014	3.67
542.358	3.69
542.701	3.68
543.045	3.69
543.389	3.69
543.732	3.7
544.075	3.68
544.419	3.69
544.762	3.7
545.105	3.7
545.449	3.71
545.792	3.69
546.135	3.66
546.478	3.65
546.821	3.63
547.165	3.62
547.508	3.62
547.851	3.61
548.194	3.57
548.536	3.56
548.879	3.57
549.222	3.58
549.565	3.56
549.908	3.57
550.25	3.57
550.593	3.57
550.936	3.54
551.278	3.56
551.621	3.56
551.963	3.58
552.306	3.58
552.648	3.56
552.991	3.59
553.333	3.61
553.675	3.62
554.017	3.63
554.36	3.66
554.702	3.68
555.044	3.67
555.386	3.7
555.728	3.69
556.07	3.68
556.412	3.66
556.754	3.65
557.096	3.64
557.438	3.65
557.78	3.66
558.121	3.69
558.463	3.72
558.805	3.73
559.147	3.7
559.488	3.71
559.83	3.72
560.171	3.7
560.513	3.72
560.854	3.69
561.196	3.68
561.537	3.69
561.878	3.67
562.22	3.68
562.561	3.69
562.902	3.68
563.243	3.66
563.584	3.65
563.925	3.67
564.266	3.67
564.607	3.67
564.948	3.69
565.289	3.66
565.63	3.65
565.971	3.61
566.312	3.63
566.653	3.63
566.993	3.64
567.334	3.65
567.675	3.63
568.015	3.65
568.356	3.69
568.696	3.7
569.037	3.7
569.377	3.7
569.718	3.68
570.058	3.7
570.398	3.72
570.739	3.73
571.079	3.74
571.419	3.78
571.759	3.75
572.099	3.73
572.439	3.75
572.779	3.74
573.119	3.77
573.459	3.78
573.799	3.79
574.139	3.8
574.479	3.8
574.819	3.82
575.158	3.82
575.498	3.79
575.838	3.79
576.177	3.76
576.517	3.78
576.856	3.81
577.196	3.8
577.535	3.78
577.875	3.79
578.214	3.77
578.553	3.75
578.893	3.77
579.232	3.75
579.571	3.76
579.91	3.74
580.25	3.75
580.589	3.76
580.928	3.75
581.267	3.73
581.606	3.72
581.945	3.72
582.283	3.67
582.622	3.69
582.961	3.67
583.3	3.69
583.639	3.71
583.977	3.71
584.316	3.7
584.654	3.69
584.993	3.72
585.332	3.75
585.67	3.73
586.008	3.74
586.347	3.76
586.685	3.75
587.024	3.79
587.362	3.8
587.7	3.81
588.038	3.84
588.376	3.84
588.715	3.86
589.053	3.88
589.391	3.95
589.729	3.93
590.067	3.94
590.404	3.99
590.742	3.98
591.08	3.96
591.418	4.01
591.756	4.04
592.093	4.02
592.431	4
592.769	4.01
593.106	3.98
593.444	3.96
593.781	3.93
594.119	3.92
594.456	3.89
594.793	3.85
595.131	3.82
595.468	3.82
595.805	3.79
596.143	3.81
596.48	3.77
596.817	3.79
597.154	3.78
597.491	3.77
597.828	3.75
598.165	3.72
598.502	3.69
598.839	3.66
599.176	3.69
599.512	3.67
599.849	3.67
600.186	3.69
600.523	3.73
600.859	3.8
601.196	3.8
601.532	3.81
601.869	3.8
602.205	3.81
602.542	3.82
602.878	3.83
603.215	3.81
603.551	3.82
603.887	3.79
604.223	3.81
604.56	3.83
604.896	3.84
605.232	3.9
605.568	3.9
605.904	3.94
606.24	3.94
606.576	3.94
606.912	3.96
607.248	3.94
607.583	3.94
607.919	3.92
608.255	3.89
608.591	3.9
608.926	3.92
609.262	3.94
609.597	3.96
609.933	3.99
610.268	4
610.604	4.03
610.939	4.1
611.275	4.13
611.61	4.11
611.945	4.11
612.281	4.08
612.616	4.1
612.951	4.11
613.286	4.11
613.621	4.13
613.956	4.08
614.291	4.1
614.626	4.1
614.961	4.12
615.296	4.13
615.631	4.17
615.966	4.17
616.3	4.14
616.635	4.1
616.97	4.11
617.304	4.09
617.639	4.05
617.973	4
618.308	3.93
618.642	3.9
618.977	3.9
619.311	3.87
619.646	3.85
619.98	3.87
620.314	3.89
620.648	3.92
620.983	3.92
621.317	3.98
621.651	3.96
621.985	3.95
622.319	3.99
622.653	3.95
622.987	3.98
623.321	3.97
623.655	3.99
623.988	4.01
624.322	4.01
624.656	4.05
624.99	4.09
625.323	4.06
625.657	4.1
625.99	4.16
626.324	4.14
626.657	4.15
626.991	4.11
627.324	4.07
627.658	4.07
627.991	4.08
628.324	4.04
628.657	4.03
628.991	4.07
629.324	4.03
629.657	4.03
629.99	3.99
630.323	4.05
630.656	4.07
630.989	4.03
631.322	4.09
631.655	4.05
631.987	4.04
632.32	4.11
632.653	4.08
632.986	4.02
633.318	4.04
633.651	4.07
633.984	4.07
634.316	4.04
634.649	4.02
634.981	4.06
635.313	4.05
635.646	4.06
635.978	4.02
636.31	4.07
636.643	4.1
636.975	4.15
637.307	4.08
637.639	4.05
637.971	4.03
638.303	4.01
638.635	3.99
638.967	3.97
639.299	3.89
639.631	3.93
639.963	3.96
640.295	3.99
640.626	3.98
640.958	3.99
641.29	4.04
641.621	4.05
641.953	3.99
642.285	4.02
642.616	4.07
642.948	4.09
643.279	4.04
643.61	3.98
643.942	3.89
644.273	4.01
644.604	4.03
644.936	4.02
645.267	3.98
645.598	3.98
645.929	4.01
646.26	4.08
646.591	4.05
646.922	4.02
647.253	4.05
647.584	4
647.915	3.98
648.245	3.96
648.576	3.94
648.907	3.99
649.238	4.02
649.568	3.97
649.899	3.95
650.229	3.94
650.56	3.93
650.89	3.96
651.221	3.91
651.551	3.88
651.882	3.87
652.212	3.92
652.542	3.98
652.872	3.92
653.203	3.91
653.533	3.89
653.863	3.88
654.193	3.83
654.523	3.83
654.853	3.82
655.183	3.82
655.513	3.86
655.843	3.78
656.172	3.77
656.502	3.81
656.832	3.81
657.162	3.88
657.491	3.9
657.821	3.9
658.15	3.88
658.48	3.91
658.809	3.93
659.139	3.92
659.468	3.89
659.798	4
660.127	4.04
660.456	4.09
660.785	4.16
661.115	4.18
661.444	4.17
661.773	4.23
662.102	4.26
662.431	4.27
662.76	4.32
663.089	4.21
663.418	4.22
663.747	4.2
664.076	4.17
664.404	4.17
664.733	4.19
665.062	4.22
665.39	4.15
665.719	4.19
666.048	4.21
666.376	4.25
666.705	4.1
667.033	4.08
667.362	4.02
667.69	3.95
668.018	3.94
668.347	4.04
668.675	3.99
669.003	4.01
669.331	4.03
669.659	4.06
669.987	4.13
670.315	4.1
670.643	4.12
670.971	4.14
671.299	4.19
671.627	4.22
671.955	4.11
672.283	4.13
672.61	4.03
672.938	3.99
673.266	3.98
673.593	4.15
673.921	4.11
674.249	4.12
674.576	4.13
674.904	4.15
675.231	4.11
675.558	4.18
675.886	4.17
676.213	4.1
676.54	4.12
676.867	4.15
677.195	4.13
677.522	4.15
677.849	4.15
678.176	4.18
678.503	4.24
678.83	4.33
679.157	4.34
679.484	4.34
679.81	4.38
680.137	4.27
680.464	4.22
680.791	4.2
681.117	4.21
681.444	4.15
681.771	4.2
682.097	4.14
682.424	4.09
682.75	4.07
683.077	4.03
683.403	4.07
683.729	4.06
684.056	4.09
684.382	4.14
684.708	4.09
685.034	3.94
685.36	3.82
685.686	3.82
686.012	3.83
686.339	3.9
686.664	3.79
686.99	3.97
687.316	3.88
687.642	4
687.968	3.96
688.294	4.07
688.619	4.04
688.945	4.05
689.271	4.13
689.596	4.05
689.922	4.17
690.247	4.04
690.573	4.09
690.898	4.05
691.224	3.97
691.549	3.96
691.874	3.98
692.2	4.04
692.525	4.06
692.85	4.1
693.175	4.1
693.5	4.15
693.825	4.1
694.15	4.13
694.475	3.99
694.8	4.02
695.125	3.99
695.45	3.99
695.775	4.06
696.099	4.02
696.424	4.12
696.749	4.03
697.073	4.13
697.398	4.14
697.723	4.22
698.047	4.14
698.372	4.15
698.696	4.24
699.02	4.2
699.345	4.17
699.669	4.21
699.993	4.16
700.318	4.2
700.642	4.12
700.966	4.14
701.29	4.16
701.614	4.21
701.938	4.24
702.262	4.27
702.586	4.25
702.91	4.19
703.234	4.24
703.557	4.37
703.881	4.4
704.205	4.3
704.529	4.2
704.852	4.33
705.176	4.32
705.499	4.26
705.823	4.24
706.146	4.17
706.47	4.11
706.793	4.12
707.117	4
707.44	4.03
707.763	4.03
708.086	4.02
708.409	3.98
708.733	3.92
709.056	3.86
709.379	4.02
709.702	4.09
710.025	4.02
710.348	3.8
710.671	3.71
710.993	3.82
711.316	3.81
711.639	3.84
711.962	3.78
712.284	3.86
712.607	3.9
712.93	3.91
713.252	3.97
713.575	4.03
713.897	4.04
714.22	4.07
714.542	4.09
714.864	4.13
715.187	4.23
715.509	4.22
715.831	4.31
716.153	4.25
716.475	4.23
716.798	4.32
717.12	4.41
717.442	4.46
717.764	4.36
718.085	4.41
718.407	4.44
718.729	4.55
719.051	4.59
719.373	4.66
719.695	4.73
720.016	4.68
720.338	4.66
720.659	4.73
720.981	4.92
721.302	4.86
721.624	5
721.945	4.94
722.267	4.98
722.588	4.82
722.909	4.7
723.231	4.83
723.552	4.64
723.873	4.58
724.194	4.58
724.515	4.7
724.836	4.72
725.157	4.75
725.478	4.72
725.799	4.74
726.12	4.53
726.441	4.58
726.762	4.53
727.083	4.6
727.403	4.64
727.724	4.44
728.045	4.55
728.365	4.5
728.686	4.44
729.006	4.3
729.327	4.19
729.647	4.17
729.967	4.06
730.288	4.17
730.608	4.24
730.928	4.16
731.249	4.06
731.569	4.04
731.889	3.87
732.209	3.86
732.529	3.73
732.849	3.79
733.169	3.61
733.489	3.69
733.809	3.66
734.129	3.75
734.448	3.75
734.768	3.66
735.088	3.52
735.408	3.6
735.727	3.79
736.047	3.96
736.366	4.02
736.686	4.14
737.005	4.18
737.325	4.13
737.644	4.07
737.963	4.25
738.283	4.05
738.602	4.25
738.921	4.22
739.24	4.25
739.56	4.18
739.879	4.48
740.198	4.46
740.517	4.37
740.836	4.27
741.155	4.33
741.473	4.43
741.792	4.66
742.111	4.6
742.43	4.51
742.748	4.34
743.067	4.27
743.386	4.28
743.704	4.4
744.023	4.49
744.341	4.59
744.66	4.67
744.978	4.64
745.297	4.53
745.615	4.78
745.933	4.76
746.252	4.92
746.57	4.93
746.888	4.92
747.206	4.97
747.524	4.91
747.842	4.92
748.16	4.83
748.478	4.63
748.796	4.6
749.114	4.78
749.432	4.87
749.749	4.87
750.067	4.69
750.385	4.57
750.703	4.6
751.02	4.72
751.338	4.33
751.655	4.42
751.973	4.49
752.29	4.41
752.608	4.55
752.925	4.72
753.242	4.65
753.56	4.34
753.877	4.39
754.194	4.54
754.511	4.63
754.828	4.67
755.145	4.71
755.462	4.71
755.779	4.9
756.096	4.85
756.413	4.9
756.73	4.98
757.047	4.95
757.364	4.92
757.68	4.82
757.997	4.92
758.314	4.94
758.63	5
758.947	4.81
759.264	4.67
759.58	4.67
759.896	4.74
760.213	5.18
760.529	5.14
760.846	5.05
761.162	5
761.478	4.91
761.794	4.68
762.11	4.55
762.426	4.24
762.743	4.39
763.059	4.36
763.375	4.32
763.69	4.33
764.006	4.45
764.322	4.55
764.638	4.56
764.954	4.92
765.27	4.97
765.585	4.87
765.901	4.84
766.216	4.76
766.532	4.7
766.848	4.44
767.163	4.48
767.478	4.45
767.794	4.34
768.109	4.24
768.424	4.3
768.74	4.57
769.055	4.8
769.37	4.96
769.685	5
770	5.22
770.315	4.9
770.63	4.78
770.945	4.57
771.26	4.96
771.575	4.62
771.89	4.29
772.205	4.52
772.52	4.69
772.834	4.69
773.149	4.45
773.464	4.68
773.778	4.73
774.093	4.54
774.407	4.66
774.722	4.89
775.036	4.91
775.351	4.88
775.665	4.49
775.979	4.39
776.293	4.3
776.608	4.36
776.922	4.53
777.236	4.58
777.55	4.76
777.864	4.39
778.178	4.29
778.492	4.53
778.806	4.68
779.12	4.91
779.434	5.08
779.747	5.12
780.061	5.02
780.375	5.01
780.689	5.01
781.002	5.05
781.316	4.97
781.629	5.55
781.943	5.31
782.256	5.69
782.57	5.6
782.883	5.73
783.196	5.17
783.51	5.12
783.823	4.94
784.136	4.89
784.449	5.11
784.762	5.22
785.075	5.33
785.388	5.42
785.701	5.02
786.014	4.93
786.327	4.89
786.64	4.94
786.953	5.28
787.266	5.3
787.578	4.82
787.891	5.12
788.204	4.93
788.516	5.33
788.829	5.26
789.141	5.16
789.454	4.96
789.766	5.45
790.079	5.78
790.391	5.66
790.703	5.37
791.016	5.52
791.328	5.88
791.64	5.55
791.952	5.62
792.264	5.48
792.576	5.09
792.888	5.47
793.2	5.38
793.512	4.64
793.824	4.86
794.136	5.05
794.448	4.98
794.76	4.57
795.071	4.44
795.383	4.26
795.695	4.09
796.006	4.11
796.318	3.98
796.629	3.69
796.941	3.9
797.252	4.53
797.564	4.47
797.875	3.81
798.186	3.82
798.497	4.09
798.809	4.14
799.12	4.21
799.431	3.98
799.742	4.29
800.053	4.63
800.364	4.54
800.675	4.95
800.986	4.65
801.297	5.03
801.608	4.65
801.918	4.64
802.229	4.7
802.54	4.91
802.851	4.86
803.161	5.3
803.472	4.84
803.782	4.84
804.093	4.46
804.403	4.44
804.714	4.43
805.024	3.81
805.334	3.58
805.645	3.77
805.955	4.14
806.265	4.65
806.575	4.67
806.885	4.69
807.195	4.37
807.505	4.36
807.815	4.63
808.125	4.68
808.435	4.51
808.745	4.49
809.055	4.99
809.365	4.95
809.674	4.47
809.984	5.66
810.294	5.17
810.603	5.05
810.913	5.59
811.222	6.57
811.532	6.79
811.841	7.7
812.151	8.47
812.46	7.72
812.769	7.12
813.079	7.03
813.388	7.92
813.697	8.04
814.006	8.54
814.315	8.58
814.624	8.5
814.933	9.37
815.242	9.31
815.551	8.72
815.86	8.61
816.169	8.68
816.478	7.84
816.786	7.96
817.095	8.1
817.404	8.48
817.712	7.88
818.021	7.86
818.33	7.3
818.638	7.09
818.947	7.63
819.255	7.6
819.563	7.66
819.872	7.13
820.18	7.28
820.488	6.88
820.796	6.82
821.105	6.83
821.413	6.7
821.721	6.65
822.029	6.73
822.337	6.77
822.645	6.91
822.953	6.92
823.26	6.94
823.568	7.04
823.876	6.87
824.184	6.8
824.491	6.74
824.799	6.92
825.107	6.76
825.414	6.74
825.722	6.72
826.029	6.7
826.337	6.72
826.644	6.6
826.951	6.6
827.259	6.57
827.566	6.6
827.873	6.46
828.18	6.51
828.488	6.3
828.795	6.33
829.102	6.1
829.409	6.06
829.716	5.86
830.023	5.59
830.329	5.57
830.636	5.63
830.943	5.83
831.25	5.4
831.557	5.33
831.863	5.13
832.17	5.07
832.476	5.26
832.783	5.62
833.089	5.75
833.396	6.09
833.702	6.2
834.009	6.49
834.315	6.36
834.621	6.44
834.928	6.69
835.234	6.58
835.54	6.85
835.846	7.32
836.152	7.75
836.458	8.25
836.764	8.17
837.07	7.76
837.376	7.26
837.682	7.49
837.988	7.75
838.293	7.88
838.599	7.65
838.905	7.07
839.211	6.08
839.516	5.86
839.822	5.78
840.127	5.25
840.433	4.91
840.738	4.87
841.044	4.9
841.349	5.51
841.654	5.17
841.959	4.94
842.265	3.42
842.57	2.77
842.875	2.15
843.18	2.92
843.485	3.7
843.79	4.05
844.095	3.67
844.4	4.68
844.705	3.56
845.01	3.86
845.315	4.32
845.619	4.07
845.924	4.4
846.229	4.54
846.533	4.76
846.838	3.48
847.142	3.88
847.447	2.73
847.751	2.35
848.056	0.95
848.36	0.98
848.664	1.73
848.969	2.1
849.273	-0.15
849.577	-3.09
849.881	-3.7
850.185	-3.5
850.489	-3.12
850.794	-6.52
851.097	-5.91
851.401	-6.7
851.705	-5.99
852.009	-3.31
852.313	-3.86
852.617	-4.2
852.92	-4.43
853.224	-4.13
853.528	-2.7
853.831	-2.13
854.135	-3.58
854.438	-3.25
854.742	-3.98
855.045	-4.95
855.349	-4.34
855.652	-2.92
855.955	-0.73
856.259	-2.13
856.562	-2.98
856.865	-0.7
857.168	0.85
857.471	2.37
857.774	4.23
858.077	3.37
858.38	1.32
858.683	1.07
858.986	1.62
859.289	3.1
859.592	2.93
859.894	0.15
860.197	1.96
860.5	1.48
860.802	3.78
861.105	3.44
861.407	3.44
861.71	1.01
862.012	0.88
862.315	0.34
862.617	2.54
862.919	2.8
863.222	-0.54
863.524	0.54
863.826	0.26
864.128	1.52
864.43	1.29
864.732	2.86
865.034	3.56
865.336	3.47
865.638	0.8
865.94	0.66
866.242	1.74
866.544	-0.45
866.846	0.13
867.147	-1.69
867.449	-1.55
867.751	-0.23
868.052	2.14
868.354	3.55
868.655	4.88
868.957	4.24
869.258	4.47
869.56	6.23
869.861	3.81
870.162	3.8
870.463	0.07
870.765	0.48
871.066	0.58
871.367	0.65
871.668	-0.88
871.969	-0.6
872.27	0.67
872.571	-0.3
872.872	0.27
873.173	-1.31
873.473	0.6
873.774	-0.14
874.075	-0.9
874.376	-0.7
874.676	0.09
874.977	-3.1
875.277	-1.15
875.578	-1.1
875.878	-2.15
876.179	-0.83
876.479	-1.44
876.78	-0.59
877.08	-0.75
877.38	-2.11
877.68	-2.61
877.981	-1.57
878.281	-0.29
878.581	-0.57
