Data from BA35141_Reflection_00009.txt Node
Date: Tue Nov 19 11:54:45 EST 2019
User: vgr7
Spectrometer: USB2G7710
Scans to average: 3
Trigger mode: 4
Integration Time (sec): 2.000000E-2
Electric dark correction enabled: true
Boxcar width: 10
XAxis mode: Wavelengths
Number of Pixels in Spectrum: 2048
>>>>>Begin Spectral Data<<<<<
177.721	-33.7
178.105	141.67
178.488	94.47
178.871	67.54
179.254	40.58
179.636	61.07
180.019	20.29
180.402	-800
180.785	30.63
181.168	-5.86
181.55	58.75
181.933	42.88
182.316	64.34
182.698	30.5
183.081	-1.34
183.463	22.39
183.846	-2.5
184.228	-17.59
184.611	113
184.993	98.41
185.376	41.25
185.758	-0.6
186.14	28.99
186.522	-113.18
186.904	284.85
187.287	150.26
187.669	626.67
188.051	-228.83
188.433	-108.81
188.815	-51.42
189.197	-487.72
189.579	584.13
189.961	151.91
190.342	83.78
190.724	65.72
191.106	217.28
191.488	48.03
191.869	80.19
192.251	67.3
192.633	45.8
193.014	24.32
193.396	3.32
193.777	2.94
194.159	-2.48
194.54	0.55
194.922	-10.01
195.303	-11.21
195.684	-26.52
196.065	-24.27
196.447	-28.98
196.828	-24.95
197.209	-22.17
197.59	-20.55
197.971	-17.27
198.352	-21.99
198.733	-35.3
199.114	-31.77
199.495	-13.84
199.876	-12.63
200.257	-34
200.638	-31.18
201.018	-22.54
201.399	-13.71
201.78	18.53
202.16	42.19
202.541	57.17
202.922	51.8
203.302	109.07
203.683	169.11
204.063	487.18
204.444	380.07
204.824	246.46
205.204	150.99
205.585	251.42
205.965	358.11
206.345	142.61
206.725	106.78
207.106	100.32
207.486	94.6
207.866	79.35
208.246	112.51
208.626	120.33
209.006	131.57
209.386	163.88
209.766	86.27
210.145	78.67
210.525	48.4
210.905	9.87
211.285	12.51
211.664	5.61
212.044	21.02
212.424	13.75
212.803	-8.39
213.183	18.64
213.562	20.79
213.942	12.94
214.321	-1.41
214.701	-32.34
215.08	-43.24
215.459	-49.38
215.838	-74.68
216.218	-152.64
216.597	-97.19
216.976	-117.42
217.355	-103.4
217.734	-107.37
218.113	-95.84
218.492	-48.36
218.871	-25.96
219.25	-20.74
219.629	-25.5
220.008	-12.26
220.387	-15.02
220.766	-3.23
221.144	-20.14
221.523	-25.42
221.902	-21.96
222.28	-13.21
222.659	7.61
223.037	11.99
223.416	15.45
223.794	16.03
224.173	17.57
224.551	19.64
224.929	14.98
225.308	15.74
225.686	13.91
226.064	12.67
226.442	9.02
226.821	6.65
227.199	4.43
227.577	4.7
227.955	7.43
228.333	3.64
228.711	4.93
229.089	2.59
229.467	0.75
229.845	-1.03
230.222	0.62
230.6	-3.64
230.978	-3.83
231.356	-4.55
231.733	-2.36
232.111	-1.3
232.488	-0.27
232.866	0.82
233.243	-1.53
233.621	1.49
233.998	3.23
234.376	3.23
234.753	3.01
235.13	2.12
235.508	2.07
235.885	0.86
236.262	2.15
236.639	0.52
237.016	2.52
237.393	4.54
237.77	5.11
238.147	6.24
238.524	6.57
238.901	5.17
239.278	5.28
239.655	4.85
240.032	4.58
240.409	4.2
240.785	4.23
241.162	5.26
241.539	4.46
241.915	4.13
242.292	4.63
242.668	4.9
243.045	5.45
243.421	4.92
243.798	4.62
244.174	4.83
244.551	4.75
244.927	4.42
245.303	4.02
245.679	3.86
246.056	3.65
246.432	3.73
246.808	3.97
247.184	3.92
247.56	3.8
247.936	3.93
248.312	4.01
248.688	4.04
249.064	3.41
249.44	3.43
249.815	3.42
250.191	3.18
250.567	3.08
250.943	2.71
251.318	3.03
251.694	3
252.069	2.87
252.445	2.89
252.82	3.04
253.196	2.84
253.571	2.99
253.947	2.97
254.322	3.22
254.697	3.21
255.073	3.34
255.448	3.52
255.823	3.43
256.198	3.25
256.573	3.04
256.948	3.54
257.323	3.5
257.698	3.6
258.073	3.6
258.448	3.52
258.823	3.68
259.198	3.57
259.573	3.42
259.948	3.23
260.322	3.28
260.697	3.28
261.072	3.48
261.446	3.53
261.821	3.57
262.195	3.41
262.57	3.43
262.944	3.19
263.319	3.04
263.693	3.15
264.067	3.1
264.442	3.18
264.816	3.1
265.19	3.11
265.564	2.9
265.938	2.74
266.313	2.74
266.687	2.67
267.061	2.67
267.435	3.01
267.809	3.25
268.183	3.31
268.556	3.19
268.93	3.24
269.304	3.04
269.678	3.02
270.051	3.08
270.425	3
270.799	3.1
271.172	3.27
271.546	3.09
271.919	3.12
272.293	3.28
272.666	3.2
273.04	3.07
273.413	3.06
273.787	3.05
274.16	2.87
274.533	2.83
274.906	2.9
275.279	2.82
275.653	2.87
276.026	2.85
276.399	2.72
276.772	2.64
277.145	2.8
277.518	2.67
277.891	2.43
278.263	2.54
278.636	2.65
279.009	2.61
279.382	2.57
279.755	2.59
280.127	2.56
280.5	2.56
280.872	2.84
281.245	2.78
281.617	2.81
281.99	3.14
282.362	3.2
282.735	3.12
283.107	3.07
283.479	3.04
283.852	3.09
284.224	3.23
284.596	3.13
284.968	3.09
285.34	3.15
285.713	3.34
286.085	3.29
286.457	3.32
286.829	3.17
287.201	3.19
287.572	3.34
287.944	3.29
288.316	3.33
288.688	3.29
289.06	3.32
289.431	3.45
289.803	3.49
290.175	3.44
290.546	3.6
290.918	3.59
291.289	3.41
291.661	3.44
292.032	3.53
292.403	3.59
292.775	3.57
293.146	3.55
293.517	3.52
293.889	3.51
294.26	3.58
294.631	3.7
295.002	3.89
295.373	3.71
295.744	3.82
296.115	3.77
296.486	3.75
296.857	3.86
297.228	3.71
297.599	3.61
297.97	3.77
298.34	3.67
298.711	3.79
299.082	3.84
299.452	3.86
299.823	3.75
300.194	3.85
300.564	3.9
300.935	3.99
301.305	4.22
301.676	4.14
302.046	3.99
302.416	4.05
302.787	4.05
303.157	4.15
303.527	4.09
303.897	4.12
304.267	4.17
304.637	4.36
305.008	4.65
305.378	4.79
305.748	4.71
306.117	4.66
306.487	4.65
306.857	4.81
307.227	4.89
307.597	5
307.967	4.92
308.336	5.02
308.706	5.07
309.076	4.96
309.445	5.23
309.815	5.35
310.184	5.33
310.554	5.1
310.923	5.06
311.293	5.09
311.662	5.19
312.031	5.18
312.401	5.15
312.77	5.05
313.139	5.01
313.508	5.03
313.877	5.05
314.246	5.02
314.616	4.94
314.985	4.74
315.353	4.67
315.722	4.9
316.091	4.83
316.46	4.73
316.829	4.66
317.198	4.54
317.567	4.55
317.935	4.57
318.304	4.83
318.672	4.83
319.041	4.95
319.41	5.07
319.778	5.14
320.147	5.03
320.515	5.11
320.883	5.05
321.252	5.06
321.62	5.19
321.988	5.3
322.357	5.31
322.725	5.43
323.093	5.64
323.461	5.54
323.829	5.59
324.197	5.72
324.565	5.67
324.933	5.7
325.301	5.65
325.669	5.64
326.037	5.61
326.405	5.66
326.772	5.7
327.14	5.76
327.508	5.72
327.875	5.86
328.243	5.74
328.61	5.83
328.978	5.89
329.346	5.99
329.713	6.06
330.08	6.21
330.448	6.24
330.815	6.17
331.182	6.1
331.55	6.07
331.917	5.91
332.284	6
332.651	6.05
333.018	6.08
333.385	6.14
333.752	6.11
334.119	6.07
334.486	5.98
334.853	5.88
335.22	5.9
335.587	5.93
335.954	5.99
336.32	5.95
336.687	5.82
337.054	5.73
337.42	5.71
337.787	5.66
338.153	5.74
338.52	5.82
338.886	5.92
339.253	5.91
339.619	6.09
339.986	6.04
340.352	6.07
340.718	6.06
341.084	6.05
341.451	6.14
341.817	6.29
342.183	6.33
342.549	6.44
342.915	6.45
343.281	6.39
343.647	6.45
344.013	6.63
344.379	6.66
344.745	6.61
345.11	6.54
345.476	6.51
345.842	6.35
346.208	6.31
346.573	6.21
346.939	6.2
347.304	6.15
347.67	6.16
348.035	6.19
348.401	6.21
348.766	6.1
349.132	6.05
349.497	5.95
349.862	5.89
350.228	5.78
350.593	5.82
350.958	5.81
351.323	5.75
351.688	5.69
352.053	5.65
352.418	5.76
352.783	5.75
353.148	5.89
353.513	6.07
353.878	6.01
354.243	5.98
354.608	6.01
354.972	5.98
355.337	6.02
355.702	6.02
356.066	6.02
356.431	6.14
356.795	6.14
357.16	6.09
357.524	6.09
357.889	6.08
358.253	6.05
358.618	6.03
358.982	6
359.346	5.93
359.71	5.98
360.075	5.94
360.439	6.03
360.803	5.91
361.167	5.85
361.531	5.86
361.895	5.91
362.259	5.93
362.623	5.9
362.987	5.85
363.351	5.82
363.714	5.83
364.078	5.74
364.442	5.73
364.806	5.79
365.169	5.77
365.533	5.81
365.896	5.76
366.26	5.74
366.623	5.66
366.987	5.69
367.35	5.68
367.714	5.69
368.077	5.65
368.44	5.68
368.803	5.58
369.167	5.54
369.53	5.5
369.893	5.4
370.256	5.46
370.619	5.47
370.982	5.43
371.345	5.37
371.708	5.35
372.071	5.28
372.434	5.27
372.797	5.33
373.159	5.22
373.522	5.26
373.885	5.21
374.247	5.27
374.61	5.25
374.973	5.15
375.335	5.06
375.698	5.01
376.06	4.99
376.423	5.03
376.785	5
377.147	5.01
377.51	5.01
377.872	4.93
378.234	4.93
378.596	4.89
378.958	4.9
379.321	4.92
379.683	4.91
380.045	4.87
380.407	4.77
380.769	4.78
381.13	4.76
381.492	4.77
381.854	4.7
382.216	4.63
382.578	4.65
382.939	4.59
383.301	4.48
383.663	4.46
384.024	4.43
384.386	4.46
384.747	4.35
385.109	4.35
385.47	4.37
385.832	4.31
386.193	4.29
386.554	4.25
386.916	4.23
387.277	4.2
387.638	4.13
387.999	4.17
388.36	4.13
388.721	4.09
389.082	4.06
389.443	4.1
389.804	4.11
390.165	4.1
390.526	4.14
390.887	4.14
391.248	4.1
391.609	4.08
391.969	4.05
392.33	4.09
392.691	4.05
393.051	4
393.412	4.01
393.772	3.99
394.133	3.99
394.493	3.93
394.854	3.89
395.214	3.89
395.574	3.83
395.935	3.77
396.295	3.72
396.655	3.68
397.015	3.6
397.376	3.57
397.736	3.54
398.096	3.53
398.456	3.54
398.816	3.53
399.176	3.5
399.535	3.48
399.895	3.45
400.255	3.43
400.615	3.44
400.975	3.42
401.334	3.42
401.694	3.37
402.054	3.39
402.413	3.4
402.773	3.39
403.132	3.44
403.492	3.48
403.851	3.5
404.211	3.53
404.57	3.54
404.929	3.53
405.288	3.57
405.648	3.55
406.007	3.54
406.366	3.52
406.725	3.53
407.084	3.5
407.443	3.52
407.802	3.49
408.161	3.45
408.52	3.44
408.879	3.42
409.238	3.45
409.596	3.43
409.955	3.42
410.314	3.42
410.673	3.34
411.031	3.33
411.39	3.34
411.748	3.32
412.107	3.34
412.465	3.34
412.824	3.31
413.182	3.29
413.54	3.3
413.899	3.31
414.257	3.29
414.615	3.28
414.974	3.27
415.332	3.28
415.69	3.28
416.048	3.25
416.406	3.25
416.764	3.22
417.122	3.21
417.48	3.22
417.838	3.21
418.195	3.2
418.553	3.18
418.911	3.16
419.269	3.15
419.626	3.13
419.984	3.11
420.342	3.08
420.699	3.07
421.057	3.07
421.414	3.05
421.772	3.04
422.129	3.02
422.486	3
422.844	3
423.201	3
423.558	2.99
423.915	2.99
424.273	2.98
424.63	2.99
424.987	2.97
425.344	2.97
425.701	2.98
426.058	2.99
426.415	2.97
426.772	2.97
427.128	2.97
427.485	2.96
427.842	2.98
428.199	2.97
428.555	2.96
428.912	2.96
429.269	2.95
429.625	2.95
429.982	3
430.338	2.98
430.695	2.96
431.051	2.99
431.407	2.97
431.764	2.95
432.12	2.94
432.476	2.93
432.832	2.94
433.189	2.92
433.545	2.89
433.901	2.9
434.257	2.9
434.613	2.9
434.969	2.9
435.325	2.92
435.681	2.91
436.036	2.9
436.392	2.92
436.748	2.93
437.104	2.94
437.459	2.91
437.815	2.93
438.171	2.93
438.526	2.93
438.882	2.92
439.237	2.93
439.593	2.94
439.948	2.94
440.304	2.92
440.659	2.92
441.014	2.94
441.369	2.93
441.725	2.93
442.08	2.93
442.435	2.93
442.79	2.89
443.145	2.89
443.5	2.88
443.855	2.87
444.21	2.86
444.565	2.85
444.92	2.86
445.275	2.85
445.629	2.85
445.984	2.84
446.339	2.85
446.693	2.84
447.048	2.82
447.403	2.82
447.757	2.81
448.112	2.82
448.466	2.81
448.82	2.81
449.175	2.8
449.529	2.8
449.883	2.8
450.238	2.83
450.592	2.83
450.946	2.85
451.3	2.82
451.654	2.81
452.008	2.81
452.362	2.8
452.716	2.8
453.07	2.81
453.424	2.81
453.778	2.81
454.132	2.81
454.486	2.84
454.839	2.83
455.193	2.84
455.547	2.83
455.9	2.84
456.254	2.83
456.607	2.82
456.961	2.82
457.314	2.83
457.668	2.81
458.021	2.8
458.375	2.79
458.728	2.81
459.081	2.81
459.434	2.81
459.787	2.82
460.141	2.81
460.494	2.82
460.847	2.83
461.2	2.83
461.553	2.84
461.906	2.85
462.259	2.84
462.611	2.87
462.964	2.87
463.317	2.86
463.67	2.88
464.022	2.9
464.375	2.9
464.728	2.91
465.08	2.92
465.433	2.92
465.785	2.92
466.138	2.95
466.49	2.97
466.843	2.98
467.195	2.98
467.547	2.97
467.899	2.96
468.252	2.95
468.604	2.94
468.956	2.92
469.308	2.92
469.66	2.94
470.012	2.92
470.364	2.93
470.716	2.93
471.068	2.93
471.42	2.92
471.772	2.93
472.123	2.92
472.475	2.93
472.827	2.94
473.178	2.93
473.53	2.91
473.882	2.93
474.233	2.92
474.585	2.91
474.936	2.93
475.288	2.92
475.639	2.93
475.99	2.93
476.342	2.93
476.693	2.92
477.044	2.92
477.395	2.91
477.746	2.91
478.097	2.93
478.448	2.91
478.8	2.9
479.15	2.89
479.501	2.89
479.852	2.89
480.203	2.89
480.554	2.91
480.905	2.91
481.255	2.91
481.606	2.91
481.957	2.92
482.307	2.91
482.658	2.93
483.009	2.93
483.359	2.93
483.709	2.93
484.06	2.94
484.41	2.95
484.761	2.95
485.111	2.94
485.461	2.95
485.811	2.95
486.162	2.96
486.512	2.97
486.862	2.99
487.212	2.99
487.562	3
487.912	3
488.262	3.02
488.612	3.01
488.961	3.01
489.311	3.01
489.661	3.03
490.011	3.02
490.36	3.02
490.71	3.01
491.06	3.02
491.409	3.02
491.759	3.01
492.108	3.02
492.458	3.04
492.807	3.03
493.157	3.03
493.506	3.06
493.855	3.07
494.204	3.05
494.554	3.06
494.903	3.07
495.252	3.06
495.601	3.07
495.95	3.12
496.299	3.11
496.648	3.13
496.997	3.15
497.346	3.16
497.695	3.19
498.043	3.23
498.392	3.26
498.741	3.27
499.09	3.31
499.438	3.36
499.787	3.35
500.135	3.39
500.484	3.42
500.832	3.39
501.181	3.41
501.529	3.44
501.878	3.48
502.226	3.52
502.574	3.56
502.923	3.56
503.271	3.56
503.619	3.62
503.967	3.62
504.315	3.64
504.663	3.69
505.011	3.7
505.359	3.72
505.707	3.75
506.055	3.78
506.403	3.8
506.751	3.82
507.098	3.87
507.446	3.89
507.794	3.92
508.141	3.97
508.489	4.01
508.837	4.02
509.184	4.05
509.531	4.07
509.879	4.1
510.226	4.13
510.574	4.16
510.921	4.21
511.268	4.27
511.616	4.31
511.963	4.34
512.31	4.38
512.657	4.4
513.004	4.41
513.351	4.46
513.698	4.51
514.045	4.54
514.392	4.57
514.739	4.62
515.086	4.68
515.432	4.73
515.779	4.75
516.126	4.83
516.473	4.87
516.819	4.93
517.166	4.98
517.512	5.02
517.859	5.05
518.205	5.07
518.552	5.1
518.898	5.12
519.245	5.18
519.591	5.26
519.937	5.31
520.283	5.36
520.629	5.41
520.976	5.46
521.322	5.53
521.668	5.6
522.014	5.68
522.36	5.76
522.706	5.83
523.052	5.93
523.398	6.01
523.743	6.11
524.089	6.2
524.435	6.28
524.781	6.38
525.126	6.46
525.472	6.53
525.817	6.6
526.163	6.68
526.509	6.75
526.854	6.81
527.199	6.87
527.545	6.94
527.89	7
528.235	7.06
528.581	7.13
528.926	7.18
529.271	7.26
529.616	7.32
529.961	7.39
530.306	7.46
530.651	7.53
530.996	7.6
531.341	7.69
531.686	7.78
532.031	7.87
532.376	7.99
532.721	8.09
533.065	8.21
533.41	8.31
533.755	8.42
534.099	8.53
534.444	8.66
534.788	8.79
535.133	8.91
535.477	9.04
535.822	9.16
536.166	9.33
536.51	9.48
536.855	9.64
537.199	9.81
537.543	10
537.887	10.19
538.231	10.4
538.576	10.58
538.92	10.79
539.264	10.94
539.608	11.11
539.951	11.26
540.295	11.42
540.639	11.59
540.983	11.76
541.327	11.92
541.671	12.07
542.014	12.24
542.358	12.41
542.701	12.56
543.045	12.74
543.389	12.89
543.732	13.05
544.075	13.22
544.419	13.39
544.762	13.57
545.105	13.78
545.449	13.95
545.792	14.16
546.135	14.36
546.478	14.6
546.821	14.84
547.165	15.08
547.508	15.33
547.851	15.57
548.194	15.8
548.536	16.08
548.879	16.35
549.222	16.6
549.565	16.82
549.908	17.09
550.25	17.33
550.593	17.61
550.936	17.88
551.278	18.13
551.621	18.37
551.963	18.67
552.306	18.91
552.648	19.19
552.991	19.48
553.333	19.75
553.675	20.02
554.017	20.29
554.36	20.55
554.702	20.79
555.044	21.06
555.386	21.36
555.728	21.59
556.07	21.83
556.412	22.1
556.754	22.34
557.096	22.61
557.438	22.9
557.78	23.16
558.121	23.43
558.463	23.74
558.805	24.09
559.147	24.28
559.488	24.55
559.83	24.85
560.171	25.05
560.513	25.37
560.854	25.63
561.196	25.9
561.537	26.22
561.878	26.51
562.22	26.78
562.561	27.04
562.902	27.27
563.243	27.56
563.584	27.82
563.925	28.18
564.266	28.42
564.607	28.64
564.948	28.89
565.289	29.18
565.63	29.36
565.971	29.61
566.312	29.88
566.653	30.12
566.993	30.38
567.334	30.66
567.675	30.89
568.015	31.14
568.356	31.29
568.696	31.48
569.037	31.7
569.377	31.92
569.718	32.15
570.058	32.4
570.398	32.62
570.739	32.79
571.079	32.96
571.419	33.12
571.759	33.36
572.099	33.53
572.439	33.66
572.779	33.96
573.119	34.1
573.459	34.29
573.799	34.47
574.139	34.56
574.479	34.69
574.819	34.82
575.158	34.92
575.498	35.16
575.838	35.3
576.177	35.45
576.517	35.6
576.856	35.76
577.196	35.92
577.535	36.1
577.875	36.29
578.214	36.5
578.553	36.76
578.893	36.87
579.232	37.09
579.571	37.32
579.91	37.4
580.25	37.58
580.589	37.71
580.928	37.81
581.267	38.04
581.606	38.23
581.945	38.38
582.283	38.6
582.622	38.7
582.961	38.92
583.3	39.1
583.639	39.25
583.977	39.37
584.316	39.45
584.654	39.54
584.993	39.68
585.332	39.78
585.67	39.9
586.008	40.03
586.347	40.1
586.685	40.15
587.024	40.28
587.362	40.4
587.7	40.51
588.038	40.66
588.376	40.8
588.715	40.89
589.053	40.93
589.391	41.06
589.729	41.2
590.067	41.26
590.404	41.36
590.742	41.43
591.08	41.54
591.418	41.7
591.756	41.83
592.093	41.9
592.431	41.85
592.769	41.95
593.106	42.04
593.444	42.17
593.781	42.3
594.119	42.35
594.456	42.42
594.793	42.46
595.131	42.6
595.468	42.6
595.805	42.65
596.143	42.8
596.48	42.81
596.817	42.85
597.154	42.98
597.491	43.05
597.828	43.17
598.165	43.25
598.502	43.25
598.839	43.32
599.176	43.45
599.512	43.61
599.849	43.66
600.186	43.7
600.523	43.77
600.859	43.84
601.196	43.97
601.532	44.08
601.869	44.2
602.205	44.18
602.542	44.3
602.878	44.47
603.215	44.47
603.551	44.57
603.887	44.63
604.223	44.65
604.56	44.66
604.896	44.77
605.232	44.84
605.568	44.92
605.904	44.96
606.24	45.01
606.576	45.12
606.912	45.22
607.248	45.3
607.583	45.35
607.919	45.43
608.255	45.47
608.591	45.62
608.926	45.69
609.262	45.77
609.597	45.82
609.933	45.78
610.268	45.9
610.604	45.9
610.939	46
611.275	46.01
611.61	46.11
611.945	46.08
612.281	46.1
612.616	46.18
612.951	46.24
613.286	46.27
613.621	46.24
613.956	46.27
614.291	46.32
614.626	46.41
614.961	46.42
615.296	46.43
615.631	46.34
615.966	46.37
616.3	46.42
616.635	46.51
616.97	46.61
617.304	46.58
617.639	46.66
617.973	46.67
618.308	46.77
618.642	46.79
618.977	46.75
619.311	46.82
619.646	46.9
619.98	46.81
620.314	46.78
620.648	46.75
620.983	46.86
621.317	47.01
621.651	46.99
621.985	47.09
622.319	47.2
622.653	47.24
622.987	47.24
623.321	47.29
623.655	47.33
623.988	47.33
624.322	47.38
624.656	47.34
624.99	47.4
625.323	47.41
625.657	47.47
625.99	47.6
626.324	47.63
626.657	47.64
626.991	47.73
627.324	47.78
627.658	47.86
627.991	47.86
628.324	47.81
628.657	47.85
628.991	47.78
629.324	47.79
629.657	47.85
629.99	47.93
630.323	48.03
630.656	47.99
630.989	48.06
631.322	48.07
631.655	48.2
631.987	48.16
632.32	48.22
632.653	48.24
632.986	48.21
633.318	48.22
633.651	48.2
633.984	48.23
634.316	48.36
634.649	48.4
634.981	48.42
635.313	48.46
635.646	48.6
635.978	48.72
636.31	48.77
636.643	48.82
636.975	48.77
637.307	48.71
637.639	48.76
637.971	48.7
638.303	48.78
638.635	48.77
638.967	48.85
639.299	48.88
639.631	48.89
639.963	49
640.295	49.04
640.626	49.13
640.958	49.28
641.29	49.24
641.621	49.42
641.953	49.41
642.285	49.39
642.616	49.36
642.948	49.36
643.279	49.36
643.61	49.26
643.942	49.36
644.273	49.34
644.604	49.42
644.936	49.64
645.267	49.66
645.598	49.74
645.929	49.62
646.26	49.57
646.591	49.71
646.922	49.7
647.253	49.7
647.584	49.64
647.915	49.59
648.245	49.56
648.576	49.48
648.907	49.61
649.238	49.69
649.568	49.62
649.899	49.56
650.229	49.6
650.56	49.6
650.89	49.61
651.221	49.69
651.551	49.67
651.882	49.56
652.212	49.64
652.542	49.63
652.872	49.66
653.203	49.66
653.533	49.59
653.863	49.59
654.193	49.61
654.523	49.67
654.853	49.66
655.183	49.69
655.513	49.7
655.843	49.65
656.172	49.68
656.502	49.75
656.832	49.88
657.162	49.85
657.491	49.99
657.821	50.04
658.15	49.98
658.48	49.99
658.809	50.01
659.139	49.91
659.468	49.91
659.798	50.11
660.127	50.18
660.456	50.11
660.785	50.17
661.115	50.14
661.444	50.19
661.773	50.31
662.102	50.41
662.431	50.42
662.76	50.48
663.089	50.51
663.418	50.54
663.747	50.44
664.076	50.48
664.404	50.43
664.733	50.41
665.062	50.49
665.39	50.47
665.719	50.54
666.048	50.45
666.376	50.49
666.705	50.35
667.033	50.31
667.362	50.5
667.69	50.39
668.018	50.43
668.347	50.34
668.675	50.18
669.003	50.02
669.331	50.08
669.659	50.01
669.987	49.97
670.315	49.88
670.643	49.97
670.971	50
671.299	50.06
671.627	50.24
671.955	50.21
672.283	50.16
672.61	50.13
672.938	50.41
673.266	50.46
673.593	50.43
673.921	50.33
674.249	50.22
674.576	50.25
674.904	50.3
675.231	50.34
675.558	50.44
675.886	50.4
676.213	50.41
676.54	50.45
676.867	50.42
677.195	50.56
677.522	50.69
677.849	50.67
678.176	50.68
678.503	50.61
678.83	50.56
679.157	50.58
679.484	50.5
679.81	50.44
680.137	50.44
680.464	50.69
680.791	50.9
681.117	50.89
681.444	50.86
681.771	50.76
682.097	50.75
682.424	50.69
682.75	50.79
683.077	50.79
683.403	50.8
683.729	50.79
684.056	50.7
684.382	50.68
684.708	50.8
685.034	50.82
685.36	50.67
685.686	50.81
686.012	50.93
686.339	51.04
686.664	50.93
686.99	50.83
687.316	50.49
687.642	50.43
687.968	50.49
688.294	50.65
688.619	50.72
688.945	50.68
689.271	50.64
689.596	50.62
689.922	50.66
690.247	50.75
690.573	50.76
690.898	50.72
691.224	50.7
691.549	50.59
691.874	50.52
692.2	50.57
692.525	50.47
692.85	50.35
693.175	50.39
693.5	50.48
693.825	50.64
694.15	50.89
694.475	50.73
694.8	50.68
695.125	50.47
695.45	50.36
695.775	50.43
696.099	50.58
696.424	50.7
696.749	50.6
697.073	50.37
697.398	50.49
697.723	50.47
698.047	50.5
698.372	50.57
698.696	50.6
699.02	50.62
699.345	50.79
699.669	50.82
699.993	50.76
700.318	50.79
700.642	50.76
700.966	50.64
701.29	50.81
701.614	50.67
701.938	50.77
702.262	50.92
702.586	50.94
702.91	50.83
703.234	50.61
703.557	50.62
703.881	50.89
704.205	50.92
704.529	51.01
704.852	50.88
705.176	50.81
705.499	50.68
705.823	50.69
706.146	50.59
706.47	50.54
706.793	50.45
707.117	50.41
707.44	50.33
707.763	50.47
708.086	50.43
708.409	50.68
708.733	50.76
709.056	50.71
709.379	50.83
709.702	51
710.025	51.15
710.348	51.13
710.671	51.13
710.993	50.87
711.316	50.96
711.639	51.05
711.962	51.05
712.284	51.1
712.607	51.12
712.93	50.93
713.252	51.06
713.575	51.1
713.897	51.15
714.22	51.05
714.542	51.16
714.864	51.15
715.187	51
715.509	50.83
715.831	51.01
716.153	50.99
716.475	50.95
716.798	50.99
717.12	51.05
717.442	51.01
717.764	51.17
718.085	51.17
718.407	51.1
718.729	51.12
719.051	51.26
719.373	51.24
719.695	51.33
720.016	51.39
720.338	51.59
720.659	51.63
720.981	51.83
721.302	51.76
721.624	51.96
721.945	52.24
722.267	52.61
722.588	52.45
722.909	52.4
723.231	52.37
723.552	52.33
723.873	52.34
724.194	52.3
724.515	52.26
724.836	52.2
725.157	52.22
725.478	52.54
725.799	52.36
726.12	52.26
726.441	52.36
726.762	52.16
727.083	52.12
727.403	51.76
727.724	51.8
728.045	51.73
728.365	51.57
728.686	51.62
729.006	51.37
729.327	51.59
729.647	51.64
729.967	51.54
730.288	51.54
730.608	51.46
730.928	51.49
731.249	51.63
731.569	51.38
731.889	51.45
732.209	51.03
732.529	51.13
732.849	51.3
733.169	51.32
733.489	51.25
733.809	51.22
734.129	51.56
734.448	51.44
734.768	51.2
735.088	51.1
735.408	50.91
735.727	51.03
736.047	50.66
736.366	50.66
736.686	50.77
737.005	50.94
737.325	50.79
737.644	50.63
737.963	50.37
738.283	50.61
738.602	50.5
738.921	50.38
739.24	50.6
739.56	50.65
739.879	50.45
740.198	50.58
740.517	50.75
740.836	50.7
741.155	50.55
741.473	50.85
741.792	51.01
742.111	50.96
742.43	50.76
742.748	51.23
743.067	51.15
743.386	50.91
743.704	50.71
744.023	50.82
744.341	51.08
744.66	51.11
744.978	51.1
745.297	51.12
745.615	51.47
745.933	51.21
746.252	51.17
746.57	51.42
746.888	51.5
747.206	51.31
747.524	51.16
747.842	51.51
748.16	51.28
748.478	51.25
748.796	51.49
749.114	51.85
749.432	51.74
749.749	52
750.067	52.13
750.385	52.27
750.703	52.03
751.02	52.13
751.338	52.21
751.655	51.87
751.973	51.96
752.29	51.65
752.608	51.42
752.925	51.26
753.242	51.43
753.56	51.32
753.877	50.96
754.194	51.28
754.511	51.31
754.828	51.15
755.145	51.17
755.462	51.27
755.779	51.23
756.096	51.29
756.413	51.34
756.73	51.09
757.047	51.05
757.364	51.39
757.68	51.41
757.997	51.83
758.314	52.51
758.63	52.41
758.947	52.38
759.264	52.77
759.58	52.68
759.896	52.4
760.213	52.37
760.529	52.66
760.846	52.72
761.162	52.42
761.478	52.76
761.794	52.6
762.11	52.5
762.426	52.4
762.743	52.26
763.059	52.15
763.375	52.47
763.69	52.57
764.006	52.72
764.322	52.68
764.638	52.52
764.954	52.44
765.27	52.63
765.585	52.86
765.901	52.72
766.216	52.95
766.532	53.18
766.848	53.17
767.163	53.28
767.478	53.38
767.794	53.49
768.109	53.36
768.424	53.6
768.74	53.51
769.055	53.76
769.37	53.73
769.685	53.89
770	53.66
770.315	53.42
770.63	53.36
770.945	53.4
771.26	53.46
771.575	53.48
771.89	53.16
772.205	52.96
772.52	52.97
772.834	52.67
773.149	52.38
773.464	52.43
773.778	52.21
774.093	51.79
774.407	52.05
774.722	52.04
775.036	51.43
775.351	51.67
775.665	51.39
775.979	51.32
776.293	50.88
776.608	51.31
776.922	51.6
777.236	51.43
777.55	51.17
777.864	51.51
778.178	50.92
778.492	50.6
778.806	50.89
779.12	51.13
779.434	51.23
779.747	51.55
780.061	51.74
780.375	52.1
780.689	51.92
781.002	52.26
781.316	52.18
781.629	53.02
781.943	53.3
782.256	53.1
782.57	53.49
782.883	53.58
783.196	53.15
783.51	53.18
783.823	53.64
784.136	53.15
784.449	52.72
784.762	53.06
785.075	53.72
785.388	53.27
785.701	53.11
786.014	53.12
786.327	53.37
786.64	53.46
786.953	53.25
787.266	53.34
787.578	52.74
787.891	53.34
788.204	53.15
788.516	52.85
788.829	52.95
789.141	53.27
789.454	53.85
789.766	54.03
790.079	54.06
790.391	53.34
790.703	54.13
791.016	54.31
791.328	54.38
791.64	54.55
791.952	55.24
792.264	55.21
792.576	55.07
792.888	54.67
793.2	54.78
793.512	54.65
793.824	54.69
794.136	54.71
794.448	53.91
794.76	53.85
795.071	54.4
795.383	54.22
795.695	53.6
796.006	53.05
796.318	53.55
796.629	53.3
796.941	53.76
797.252	53.72
797.564	53.74
797.875	54.16
798.186	54.05
798.497	54.06
798.809	54.53
799.12	54.22
799.431	53.92
799.742	53.62
800.053	53.49
800.364	53.7
800.675	54.01
800.986	54.5
801.297	54.15
801.608	53.29
801.918	53.81
802.229	53.62
802.54	53.2
802.851	53.05
803.161	53.75
803.472	53.75
803.782	53.76
804.093	53.1
804.403	52.35
804.714	52.35
805.024	51.64
805.334	50.72
805.645	51.25
805.955	51.7
806.265	52.03
806.575	52.75
806.885	52.66
807.195	52.26
807.505	52.22
807.815	52.85
808.125	53.17
808.435	53.4
808.745	53.94
809.055	54.48
809.365	54.55
809.674	54.54
809.984	54.22
810.294	54.26
810.603	54.97
810.913	55.58
811.222	55.22
811.532	55.8
811.841	56.58
812.151	56.44
812.46	55.99
812.769	55.51
813.079	55.63
813.388	54.62
813.697	54.68
814.006	54.37
814.315	54.38
814.624	54.08
814.933	54.18
815.242	53.86
815.551	53.06
815.86	53.68
816.169	52.84
816.478	52.42
816.786	51.91
817.095	51.75
817.404	51.67
817.712	50.67
818.021	50.47
818.33	50.36
818.638	50.6
818.947	50.7
819.255	51.05
819.563	50.88
819.872	51.64
820.18	51.99
820.488	52.09
820.796	52.03
821.105	52.5
821.413	52.57
821.721	52.25
822.029	52.73
822.337	52.35
822.645	52.51
822.953	52.88
823.26	53.07
823.568	53.1
823.876	53.1
824.184	53.27
824.491	53.48
824.799	53.56
825.107	53.8
825.414	53.79
825.722	53.68
826.029	53.61
826.337	53.7
826.644	53.72
826.951	53.98
827.259	54.31
827.566	54.15
827.873	53.88
828.18	54.23
828.488	54.09
828.795	54.07
829.102	53.85
829.409	53.97
829.716	53.93
830.023	53.65
830.329	53.69
830.636	53.74
830.943	53.18
831.25	53.18
831.557	52.53
831.863	52.59
832.17	53
832.476	53.61
832.783	53.25
833.089	53.07
833.396	52.63
833.702	52.15
834.009	52.09
834.315	52.63
834.621	52.22
834.928	52.5
835.234	52.71
835.54	52.86
835.846	52.69
836.152	52.56
836.458	52.92
836.764	52.89
837.07	53.35
837.376	53.42
837.682	53
837.988	53.64
838.293	54.27
838.599	53.26
838.905	52.72
839.211	52.91
839.516	53.18
839.822	53.41
840.127	52.55
840.433	52.41
840.738	52
841.044	53.12
841.349	52.91
841.654	53.47
841.959	54.34
842.265	52.22
842.57	52.72
842.875	52.69
843.18	51.94
843.485	50.43
843.79	50.54
844.095	51.03
844.4	49.65
844.705	49.12
845.01	51.17
845.315	51.43
845.619	50.04
845.924	49.5
846.229	49.32
846.533	51.13
846.838	51.68
847.142	51.62
847.447	51.52
847.751	50.82
848.056	49.33
848.36	47.83
848.664	50.14
848.969	49.05
849.273	48.16
849.577	48.17
849.881	49.33
850.185	49.82
850.489	47.93
850.794	48.76
851.097	49.3
851.401	48.58
851.705	48.12
852.009	51.03
852.313	50.5
852.617	48.96
852.92	47.84
853.224	46.32
853.528	47.12
853.831	46
854.135	45.35
854.438	45.58
854.742	45.18
855.045	45
855.349	46.02
855.652	47.82
855.955	50.23
856.259	52.46
856.562	52.05
856.865	54.1
857.168	54.27
857.471	54.27
857.774	53.93
858.077	53.93
858.38	54.03
858.683	54.66
858.986	57.07
859.289	57.82
859.592	58.67
859.894	58.39
860.197	57.15
860.5	56.38
860.802	58.34
861.105	58.76
861.407	59.88
861.71	56.6
862.012	53.61
862.315	50.92
862.617	51.08
862.919	51.31
863.222	50.67
863.524	51.61
863.826	49.87
864.128	52.07
864.43	52.99
864.732	50.37
865.034	50.77
865.336	47.37
865.638	47.99
865.94	48.59
866.242	48.81
866.544	51.89
866.846	53.8
867.147	50.85
867.449	52.15
867.751	53.92
868.052	55.94
868.354	54.9
868.655	55.72
868.957	54.76
869.258	57.84
869.56	59.16
869.861	57.42
870.162	57.81
870.463	56.77
870.765	57.21
871.066	60.35
871.367	61.16
871.668	64.62
871.969	63.75
872.27	65.7
872.571	63.49
872.872	62.43
873.173	63.2
873.473	65.2
873.774	65.75
874.075	63
874.376	60.79
874.676	65.68
874.977	64.82
875.277	63.9
875.578	60.3
875.878	59.66
876.179	60.98
876.479	61.88
876.78	60.63
877.08	58.94
877.38	57.7
877.68	55.3
877.981	55.74
878.281	54.39
878.581	50.55
