Data from BA56852_Reflection_00005.txt Node
Date: Mon Nov 18 15:22:57 EST 2019
User: vgr7
Spectrometer: USB2G7710
Scans to average: 3
Trigger mode: 4
Integration Time (sec): 2.000000E-2
Electric dark correction enabled: true
Boxcar width: 10
XAxis mode: Wavelengths
Number of Pixels in Spectrum: 2048
>>>>>Begin Spectral Data<<<<<
177.721	-15.26
178.105	-52.07
178.488	-209.55
178.871	-129.24
179.254	-152.19
179.636	1.64
180.019	-13.74
180.402	90.32
180.785	661.58
181.168	152.72
181.55	120.24
181.933	70.08
182.316	94.75
182.698	74.67
183.081	52.36
183.463	47.21
183.846	43.24
184.228	76.91
184.611	103.22
184.993	89.82
185.376	55.43
185.758	45.76
186.14	54.2
186.522	78.41
186.904	64.42
187.287	82.97
187.669	57.16
188.051	58.4
188.433	56.59
188.815	56.85
189.197	69.63
189.579	52.08
189.961	95.29
190.342	109.71
190.724	228.46
191.106	213.96
191.488	174.85
191.869	249.61
192.251	377.71
192.633	257.49
193.014	362.46
193.396	551.44
193.777	261.64
194.159	379.82
194.54	386.88
194.922	-20742.11
195.303	-3643.12
195.684	-757.14
196.065	-320.06
196.447	-360.62
196.828	-396.24
197.209	-244.44
197.59	-386.99
197.971	-214.18
198.352	-196.81
198.733	-226.22
199.114	-179.76
199.495	-171.71
199.876	-133.18
200.257	-111.7
200.638	-85.44
201.018	-109.05
201.399	-84.48
201.78	-66.9
202.16	-82.07
202.541	-97.68
202.922	-105.41
203.302	-122.65
203.683	-192.53
204.063	-256.36
204.444	-170.7
204.824	-163.5
205.204	-151.37
205.585	-133.82
205.965	-128.67
206.345	-190.45
206.725	-274.76
207.106	-413.96
207.486	-289.77
207.866	-309
208.246	-302.53
208.626	-480.02
209.006	-320.72
209.386	-993.07
209.766	-1377.74
210.145	669.42
210.525	2389.02
210.905	4279.78
211.285	-390.64
211.664	-234.45
212.044	-185.55
212.424	-193.11
212.803	-273.69
213.183	-258.33
213.562	-295.82
213.942	-688.5
214.321	-227.75
214.701	-229.1
215.08	-188.56
215.459	-204.49
215.838	-347.98
216.218	-492.38
216.597	-182.24
216.976	-160.87
217.355	-102.85
217.734	-102.12
218.113	-76.42
218.492	-82.6
218.871	-121.21
219.25	-108.24
219.629	-119.41
220.008	-130
220.387	-106.98
220.766	-55.19
221.144	-48.97
221.523	-39.93
221.902	-45.65
222.28	-63.5
222.659	-34.39
223.037	-30.85
223.416	-36.94
223.794	-38.59
224.173	-28.34
224.551	-24.74
224.929	-23.9
225.308	-21.09
225.686	-14.69
226.064	-13.54
226.442	-16.39
226.821	-6.98
227.199	-13.02
227.577	-6.75
227.955	-7.85
228.333	-8.3
228.711	-6.4
229.089	-2.57
229.467	-1.89
229.845	-1.37
230.222	0.2
230.6	-3.08
230.978	-4.17
231.356	-2.45
231.733	-0.26
232.111	-0.31
232.488	0.4
232.866	-0.25
233.243	-0.33
233.621	-4.02
233.998	-2.73
234.376	-2.16
234.753	-3.25
235.13	0.29
235.508	0.41
235.885	1.49
236.262	0.6
236.639	-0.33
237.016	-2
237.393	-0.09
237.77	0.95
238.147	1.25
238.524	2.46
238.901	3.28
239.278	3.3
239.655	4.38
240.032	4.49
240.409	3.85
240.785	4.11
241.162	4.53
241.539	5.53
241.915	5.22
242.292	5.25
242.668	5.11
243.045	5
243.421	4.84
243.798	4.57
244.174	4.86
244.551	5.11
244.927	5.03
245.303	5
245.679	5
246.056	5.18
246.432	5.06
246.808	5.08
247.184	4.75
247.56	4.37
247.936	4.25
248.312	4.35
248.688	4.47
249.064	4.38
249.44	4.22
249.815	4.13
250.191	4.25
250.567	4.39
250.943	4.23
251.318	4.23
251.694	4.5
252.069	4.24
252.445	3.9
252.82	3.98
253.196	3.52
253.571	3.28
253.947	3.18
254.322	3.43
254.697	3.06
255.073	3.42
255.448	3.31
255.823	3.33
256.198	3.47
256.573	3.35
256.948	3.49
257.323	3.66
257.698	3.91
258.073	3.78
258.448	3.87
258.823	3.87
259.198	3.88
259.573	3.75
259.948	3.75
260.322	3.84
260.697	3.84
261.072	3.96
261.446	4.13
261.821	3.83
262.195	3.85
262.57	4.01
262.944	3.95
263.319	3.99
263.693	3.91
264.067	3.9
264.442	3.89
264.816	3.76
265.19	3.72
265.564	3.51
265.938	3.57
266.313	3.29
266.687	3.17
267.061	3.24
267.435	3.31
267.809	3.36
268.183	3.43
268.556	3.32
268.93	3.31
269.304	3.08
269.678	3.32
270.051	3.04
270.425	3.03
270.799	2.97
271.172	3.07
271.546	3.14
271.919	2.96
272.293	2.98
272.666	3.1
273.04	3.06
273.413	3.08
273.787	3.19
274.16	3.34
274.533	3.42
274.906	3.19
275.279	3.1
275.653	3.02
276.026	3.08
276.399	3.11
276.772	3.04
277.145	3.23
277.518	3.43
277.891	3.57
278.263	3.5
278.636	3.55
279.009	3.48
279.382	3.67
279.755	3.75
280.127	3.88
280.5	3.89
280.872	3.95
281.245	3.9
281.617	3.87
281.99	3.78
282.362	3.83
282.735	3.82
283.107	3.7
283.479	3.87
283.852	3.73
284.224	3.79
284.596	3.92
284.968	3.8
285.34	3.77
285.713	3.88
286.085	3.91
286.457	4.01
286.829	4.01
287.201	4.02
287.572	4.03
287.944	3.96
288.316	3.9
288.688	3.78
289.06	3.96
289.431	3.82
289.803	3.93
290.175	3.92
290.546	4.01
290.918	4.1
291.289	4.09
291.661	4.22
292.032	4.14
292.403	4.13
292.775	4.24
293.146	4.15
293.517	4.15
293.889	4.24
294.26	4.16
294.631	4.28
295.002	4.03
295.373	4.1
295.744	4.08
296.115	4.08
296.486	4.08
296.857	4.03
297.228	4.11
297.599	3.91
297.97	3.86
298.34	3.98
298.711	4.08
299.082	4.09
299.452	4.07
299.823	4.22
300.194	4.24
300.564	4.17
300.935	4.21
301.305	4.04
301.676	4.08
302.046	4.13
302.416	4.1
302.787	4.29
303.157	4.2
303.527	4.01
303.897	4.04
304.267	4.2
304.637	4.13
305.008	4.19
305.378	4.47
305.748	4.47
306.117	4.32
306.487	4.2
306.857	4.21
307.227	4.26
307.597	4.14
307.967	4.09
308.336	4.18
308.706	4.18
309.076	4.23
309.445	4.09
309.815	4.06
310.184	3.88
310.554	3.93
310.923	3.95
311.293	4.14
311.662	4.01
312.031	3.97
312.401	3.98
312.77	3.95
313.139	3.95
313.508	3.97
313.877	3.92
314.246	4.04
314.616	3.87
314.985	3.74
315.353	3.56
315.722	3.66
316.091	3.55
316.46	3.52
316.829	3.47
317.198	3.57
317.567	3.5
317.935	3.72
318.304	3.58
318.672	3.53
319.041	3.53
319.41	3.58
319.778	3.6
320.147	3.54
320.515	3.5
320.883	3.3
321.252	3.23
321.62	3.26
321.988	3.06
322.357	3.06
322.725	3.04
323.093	3.24
323.461	3.09
323.829	3.19
324.197	3.19
324.565	3.31
324.933	3.19
325.301	3.32
325.669	3.22
326.037	3.18
326.405	3.22
326.772	3.16
327.14	3.3
327.508	3.3
327.875	3.22
328.243	3.27
328.61	3.22
328.978	3.34
329.346	3.39
329.713	3.42
330.08	3.56
330.448	3.56
330.815	3.43
331.182	3.59
331.55	3.57
331.917	3.54
332.284	3.52
332.651	3.54
333.018	3.44
333.385	3.34
333.752	3.5
334.119	3.51
334.486	3.49
334.853	3.43
335.22	3.36
335.587	3.6
335.954	3.5
336.32	3.6
336.687	3.51
337.054	3.53
337.42	3.59
337.787	3.52
338.153	3.64
338.52	3.72
338.886	3.55
339.253	3.5
339.619	3.54
339.986	3.59
340.352	3.72
340.718	3.8
341.084	3.94
341.451	3.9
341.817	3.91
342.183	3.96
342.549	3.89
342.915	3.98
343.281	3.87
343.647	3.84
344.013	3.77
344.379	3.77
344.745	3.77
345.11	3.74
345.476	3.78
345.842	3.64
346.208	3.72
346.573	3.81
346.939	3.85
347.304	3.78
347.67	3.67
348.035	3.62
348.401	3.54
348.766	3.55
349.132	3.48
349.497	3.38
349.862	3.42
350.228	3.43
350.593	3.37
350.958	3.42
351.323	3.47
351.688	3.47
352.053	3.56
352.418	3.54
352.783	3.64
353.148	3.56
353.513	3.62
353.878	3.55
354.243	3.56
354.608	3.58
354.972	3.61
355.337	3.71
355.702	3.75
356.066	3.8
356.431	3.78
356.795	3.83
357.16	3.91
357.524	3.82
357.889	3.81
358.253	3.81
358.618	3.77
358.982	3.81
359.346	3.82
359.71	3.74
360.075	3.76
360.439	3.71
360.803	3.77
361.167	3.78
361.531	3.81
361.895	3.82
362.259	3.78
362.623	3.76
362.987	3.66
363.351	3.59
363.714	3.58
364.078	3.49
364.442	3.43
364.806	3.4
365.169	3.45
365.533	3.48
365.896	3.49
366.26	3.44
366.623	3.39
366.987	3.44
367.35	3.5
367.714	3.5
368.077	3.48
368.44	3.46
368.803	3.39
369.167	3.31
369.53	3.25
369.893	3.28
370.256	3.32
370.619	3.35
370.982	3.35
371.345	3.24
371.708	3.32
372.071	3.34
372.434	3.32
372.797	3.3
373.159	3.28
373.522	3.27
373.885	3.33
374.247	3.38
374.61	3.36
374.973	3.3
375.335	3.22
375.698	3.27
376.06	3.25
376.423	3.31
376.785	3.39
377.147	3.44
377.51	3.4
377.872	3.45
378.234	3.51
378.596	3.54
378.958	3.53
379.321	3.54
379.683	3.58
380.045	3.62
380.407	3.67
380.769	3.67
381.13	3.64
381.492	3.63
381.854	3.62
382.216	3.59
382.578	3.67
382.939	3.71
383.301	3.63
383.663	3.63
384.024	3.63
384.386	3.6
384.747	3.59
385.109	3.63
385.47	3.55
385.832	3.53
386.193	3.51
386.554	3.56
386.916	3.56
387.277	3.56
387.638	3.56
387.999	3.53
388.36	3.56
388.721	3.61
389.082	3.61
389.443	3.61
389.804	3.61
390.165	3.58
390.526	3.56
390.887	3.58
391.248	3.6
391.609	3.57
391.969	3.58
392.33	3.57
392.691	3.59
393.051	3.6
393.412	3.56
393.772	3.54
394.133	3.56
394.493	3.53
394.854	3.54
395.214	3.53
395.574	3.52
395.935	3.52
396.295	3.52
396.655	3.52
397.015	3.49
397.376	3.5
397.736	3.52
398.096	3.53
398.456	3.54
398.816	3.54
399.176	3.5
399.535	3.51
399.895	3.51
400.255	3.5
400.615	3.51
400.975	3.52
401.334	3.53
401.694	3.53
402.054	3.53
402.413	3.51
402.773	3.48
403.132	3.45
403.492	3.43
403.851	3.4
404.211	3.37
404.57	3.37
404.929	3.38
405.288	3.36
405.648	3.37
406.007	3.38
406.366	3.39
406.725	3.43
407.084	3.42
407.443	3.43
407.802	3.42
408.161	3.43
408.52	3.44
408.879	3.45
409.238	3.45
409.596	3.47
409.955	3.49
410.314	3.52
410.673	3.55
411.031	3.57
411.39	3.6
411.748	3.64
412.107	3.68
412.465	3.69
412.824	3.7
413.182	3.7
413.54	3.69
413.899	3.68
414.257	3.7
414.615	3.69
414.974	3.68
415.332	3.67
415.69	3.64
416.048	3.66
416.406	3.66
416.764	3.64
417.122	3.64
417.48	3.63
417.838	3.64
418.195	3.65
418.553	3.64
418.911	3.63
419.269	3.64
419.626	3.62
419.984	3.61
420.342	3.61
420.699	3.6
421.057	3.62
421.414	3.62
421.772	3.6
422.129	3.62
422.486	3.62
422.844	3.62
423.201	3.64
423.558	3.62
423.915	3.62
424.273	3.62
424.63	3.62
424.987	3.62
425.344	3.61
425.701	3.6
426.058	3.6
426.415	3.59
426.772	3.57
427.128	3.57
427.485	3.59
427.842	3.58
428.199	3.59
428.555	3.58
428.912	3.58
429.269	3.6
429.625	3.56
429.982	3.56
430.338	3.53
430.695	3.53
431.051	3.54
431.407	3.52
431.764	3.51
432.12	3.51
432.476	3.49
432.832	3.49
433.189	3.5
433.545	3.51
433.901	3.53
434.257	3.52
434.613	3.52
434.969	3.52
435.325	3.5
435.681	3.5
436.036	3.49
436.392	3.5
436.748	3.47
437.104	3.48
437.459	3.48
437.815	3.5
438.171	3.51
438.526	3.52
438.882	3.53
439.237	3.56
439.593	3.56
439.948	3.56
440.304	3.57
440.659	3.56
441.014	3.55
441.369	3.53
441.725	3.52
442.08	3.51
442.435	3.51
442.79	3.52
443.145	3.52
443.5	3.53
443.855	3.53
444.21	3.53
444.565	3.53
444.92	3.55
445.275	3.53
445.629	3.52
445.984	3.51
446.339	3.49
446.693	3.47
447.048	3.47
447.403	3.47
447.757	3.44
448.112	3.44
448.466	3.44
448.82	3.47
449.175	3.48
449.529	3.48
449.883	3.49
450.238	3.48
450.592	3.48
450.946	3.46
451.3	3.45
451.654	3.47
452.008	3.48
452.362	3.46
452.716	3.47
453.07	3.48
453.424	3.49
453.778	3.49
454.132	3.5
454.486	3.47
454.839	3.48
455.193	3.49
455.547	3.49
455.9	3.51
456.254	3.5
456.607	3.5
456.961	3.5
457.314	3.48
457.668	3.49
458.021	3.48
458.375	3.49
458.728	3.49
459.081	3.49
459.434	3.48
459.787	3.49
460.141	3.49
460.494	3.49
460.847	3.51
461.2	3.51
461.553	3.52
461.906	3.54
462.259	3.54
462.611	3.56
462.964	3.57
463.317	3.56
463.67	3.57
464.022	3.56
464.375	3.57
464.728	3.59
465.08	3.58
465.433	3.57
465.785	3.57
466.138	3.57
466.49	3.57
466.843	3.57
467.195	3.58
467.547	3.58
467.899	3.57
468.252	3.55
468.604	3.55
468.956	3.55
469.308	3.56
469.66	3.56
470.012	3.55
470.364	3.54
470.716	3.55
471.068	3.53
471.42	3.54
471.772	3.55
472.123	3.55
472.475	3.57
472.827	3.59
473.178	3.61
473.53	3.61
473.882	3.61
474.233	3.61
474.585	3.59
474.936	3.6
475.288	3.62
475.639	3.63
475.99	3.65
476.342	3.65
476.693	3.64
477.044	3.65
477.395	3.64
477.746	3.64
478.097	3.62
478.448	3.61
478.8	3.61
479.15	3.59
479.501	3.6
479.852	3.59
480.203	3.6
480.554	3.6
480.905	3.6
481.255	3.6
481.606	3.62
481.957	3.63
482.307	3.64
482.658	3.64
483.009	3.64
483.359	3.64
483.709	3.64
484.06	3.64
484.41	3.63
484.761	3.63
485.111	3.64
485.461	3.65
485.811	3.65
486.162	3.66
486.512	3.67
486.862	3.67
487.212	3.67
487.562	3.67
487.912	3.66
488.262	3.67
488.612	3.66
488.961	3.65
489.311	3.65
489.661	3.65
490.011	3.64
490.36	3.64
490.71	3.63
491.06	3.62
491.409	3.63
491.759	3.64
492.108	3.63
492.458	3.63
492.807	3.61
493.157	3.62
493.506	3.61
493.855	3.61
494.204	3.61
494.554	3.62
494.903	3.63
495.252	3.63
495.601	3.64
495.95	3.65
496.299	3.66
496.648	3.65
496.997	3.64
497.346	3.66
497.695	3.67
498.043	3.67
498.392	3.67
498.741	3.67
499.09	3.67
499.438	3.68
499.787	3.68
500.135	3.7
500.484	3.69
500.832	3.7
501.181	3.69
501.529	3.7
501.878	3.7
502.226	3.69
502.574	3.68
502.923	3.67
503.271	3.68
503.619	3.67
503.967	3.69
504.315	3.69
504.663	3.7
505.011	3.7
505.359	3.72
505.707	3.73
506.055	3.75
506.403	3.74
506.751	3.74
507.098	3.75
507.446	3.77
507.794	3.77
508.141	3.77
508.489	3.79
508.837	3.78
509.184	3.79
509.531	3.79
509.879	3.8
510.226	3.82
510.574	3.81
510.921	3.81
511.268	3.79
511.616	3.8
511.963	3.8
512.31	3.8
512.657	3.8
513.004	3.8
513.351	3.82
513.698	3.83
514.045	3.82
514.392	3.83
514.739	3.82
515.086	3.84
515.432	3.84
515.779	3.83
516.126	3.86
516.473	3.87
516.819	3.88
517.166	3.87
517.512	3.86
517.859	3.86
518.205	3.87
518.552	3.89
518.898	3.89
519.245	3.89
519.591	3.88
519.937	3.87
520.283	3.86
520.629	3.83
520.976	3.83
521.322	3.84
521.668	3.84
522.014	3.84
522.36	3.86
522.706	3.87
523.052	3.87
523.398	3.87
523.743	3.86
524.089	3.86
524.435	3.87
524.781	3.89
525.126	3.91
525.472	3.92
525.817	3.93
526.163	3.94
526.509	3.95
526.854	3.96
527.199	3.96
527.545	3.97
527.89	3.99
528.235	4
528.581	4.02
528.926	4.03
529.271	4.04
529.616	4.03
529.961	4.02
530.306	4.03
530.651	4.01
530.996	4.02
531.341	4.02
531.686	4.02
532.031	4.02
532.376	4.01
532.721	4.01
533.065	4
533.41	4
533.755	3.98
534.099	4
534.444	4.01
534.788	4.02
535.133	4.02
535.477	4.02
535.822	4
536.166	3.99
536.51	3.97
536.855	3.98
537.199	3.99
537.543	3.99
537.887	4.01
538.231	4.02
538.576	4.01
538.92	4
539.264	3.99
539.608	4.01
539.951	4.01
540.295	4.01
540.639	4.03
540.983	4.03
541.327	4.01
541.671	4
542.014	4
542.358	3.99
542.701	3.99
543.045	4
543.389	4
543.732	4.01
544.075	4
544.419	4.02
544.762	4.02
545.105	4.02
545.449	4.01
545.792	4.01
546.135	4.03
546.478	4.04
546.821	4.02
547.165	4.02
547.508	4.01
547.851	3.99
548.194	3.96
548.536	3.98
548.879	4
549.222	3.98
549.565	3.98
549.908	3.98
550.25	3.99
550.593	3.99
550.936	3.99
551.278	3.98
551.621	3.95
551.963	3.96
552.306	3.93
552.648	3.93
552.991	3.96
553.333	3.94
553.675	3.95
554.017	3.96
554.36	3.97
554.702	3.97
555.044	4
555.386	4.04
555.728	4.04
556.07	4.06
556.412	4.05
556.754	4.04
557.096	4.03
557.438	4.03
557.78	4.03
558.121	4.04
558.463	4.05
558.805	4.06
559.147	4.08
559.488	4.11
559.83	4.13
560.171	4.13
560.513	4.14
560.854	4.13
561.196	4.12
561.537	4.1
561.878	4.08
562.22	4.07
562.561	4.06
562.902	4.08
563.243	4.06
563.584	4.08
563.925	4.1
564.266	4.08
564.607	4.06
564.948	4.06
565.289	4.04
565.63	4.02
565.971	4
566.312	3.98
566.653	3.98
566.993	3.97
567.334	3.97
567.675	3.98
568.015	3.97
568.356	3.96
568.696	3.99
569.037	4
569.377	4.01
569.718	4.01
570.058	4.01
570.398	4.01
570.739	4.02
571.079	4.03
571.419	4.05
571.759	4.06
572.099	4.07
572.439	4.09
572.779	4.09
573.119	4.12
573.459	4.17
573.799	4.16
574.139	4.15
574.479	4.15
574.819	4.15
575.158	4.16
575.498	4.17
575.838	4.14
576.177	4.14
576.517	4.13
576.856	4.12
577.196	4.11
577.535	4.11
577.875	4.12
578.214	4.09
578.553	4.12
578.893	4.09
579.232	4.1
579.571	4.08
579.91	4.11
580.25	4.1
580.589	4.06
580.928	4.06
581.267	4.06
581.606	4.06
581.945	4.06
582.283	4.03
582.622	4.03
582.961	4.06
583.3	4.05
583.639	4.09
583.977	4.13
584.316	4.11
584.654	4.09
584.993	4.11
585.332	4.09
585.67	4.08
586.008	4.13
586.347	4.13
586.685	4.12
587.024	4.08
587.362	4.08
587.7	4.06
588.038	4.06
588.376	4.06
588.715	4.05
589.053	4.04
589.391	4.09
589.729	4.11
590.067	4.12
590.404	4.13
590.742	4.09
591.08	4.02
591.418	4.04
591.756	4.09
592.093	4.06
592.431	4.06
592.769	4.05
593.106	4.03
593.444	4.03
593.781	4.03
594.119	4.05
594.456	4.03
594.793	4.04
595.131	4.02
595.468	4.07
595.805	4.09
596.143	4.1
596.48	4.08
596.817	4.07
597.154	4.04
597.491	4.05
597.828	4.08
598.165	4.11
598.502	4.1
598.839	4.09
599.176	4.1
599.512	4.11
599.849	4.12
600.186	4.17
600.523	4.19
600.859	4.25
601.196	4.27
601.532	4.28
601.869	4.29
602.205	4.3
602.542	4.32
602.878	4.32
603.215	4.34
603.551	4.34
603.887	4.35
604.223	4.36
604.56	4.37
604.896	4.36
605.232	4.37
605.568	4.36
605.904	4.33
606.24	4.35
606.576	4.32
606.912	4.31
607.248	4.3
607.583	4.28
607.919	4.23
608.255	4.24
608.591	4.27
608.926	4.27
609.262	4.27
609.597	4.23
609.933	4.21
610.268	4.22
610.604	4.21
610.939	4.18
611.275	4.2
611.61	4.2
611.945	4.23
612.281	4.25
612.616	4.28
612.951	4.31
613.286	4.32
613.621	4.35
613.956	4.32
614.291	4.31
614.626	4.33
614.961	4.32
615.296	4.31
615.631	4.26
615.966	4.28
616.3	4.28
616.635	4.27
616.97	4.24
617.304	4.21
617.639	4.21
617.973	4.22
618.308	4.23
618.642	4.21
618.977	4.16
619.311	4.14
619.646	4.11
619.98	4.06
620.314	4.05
620.648	4.05
620.983	4.11
621.317	4.1
621.651	4.1
621.985	4.14
622.319	4.1
622.653	4.13
622.987	4.16
623.321	4.12
623.655	4.13
623.988	4.17
624.322	4.17
624.656	4.18
624.99	4.21
625.323	4.19
625.657	4.24
625.99	4.29
626.324	4.32
626.657	4.33
626.991	4.36
627.324	4.36
627.658	4.37
627.991	4.37
628.324	4.35
628.657	4.31
628.991	4.29
629.324	4.31
629.657	4.33
629.99	4.31
630.323	4.34
630.656	4.38
630.989	4.43
631.322	4.43
631.655	4.4
631.987	4.4
632.32	4.44
632.653	4.38
632.986	4.34
633.318	4.34
633.651	4.34
633.984	4.32
634.316	4.31
634.649	4.28
634.981	4.28
635.313	4.29
635.646	4.38
635.978	4.41
636.31	4.39
636.643	4.34
636.975	4.32
637.307	4.29
637.639	4.25
637.971	4.19
638.303	4.18
638.635	4.17
638.967	4.15
639.299	4.13
639.631	4.12
639.963	4.13
640.295	4.1
640.626	4.13
640.958	4.11
641.29	4.1
641.621	4.14
641.953	4.14
642.285	4.12
642.616	4.08
642.948	4.02
643.279	4.03
643.61	4.06
643.942	4.01
644.273	4.07
644.604	4.08
644.936	4.04
645.267	4.03
645.598	4.13
645.929	4.13
646.26	4.14
646.591	4.18
646.922	4.19
647.253	4.14
647.584	4.13
647.915	4.14
648.245	4.18
648.576	4.15
648.907	4.16
649.238	4.15
649.568	4.18
649.899	4.17
650.229	4.18
650.56	4.21
650.89	4.25
651.221	4.25
651.551	4.24
651.882	4.25
652.212	4.29
652.542	4.2
652.872	4.14
653.203	4.12
653.533	4.13
653.863	4.15
654.193	4.15
654.523	4.18
654.853	4.18
655.183	4.14
655.513	4.13
655.843	4.13
656.172	4.16
656.502	4.11
656.832	4.2
657.162	4.27
657.491	4.21
657.821	4.23
658.15	4.25
658.48	4.23
658.809	4.23
659.139	4.25
659.468	4.25
659.798	4.31
660.127	4.34
660.456	4.34
660.785	4.34
661.115	4.36
661.444	4.27
661.773	4.32
662.102	4.32
662.431	4.4
662.76	4.41
663.089	4.44
663.418	4.37
663.747	4.27
664.076	4.18
664.404	4.22
664.733	4.28
665.062	4.27
665.39	4.29
665.719	4.31
666.048	4.34
666.376	4.33
666.705	4.35
667.033	4.31
667.362	4.32
667.69	4.27
668.018	4.29
668.347	4.36
668.675	4.36
669.003	4.4
669.331	4.4
669.659	4.44
669.987	4.4
670.315	4.52
670.643	4.53
670.971	4.59
671.299	4.64
671.627	4.59
671.955	4.61
672.283	4.57
672.61	4.61
672.938	4.6
673.266	4.71
673.593	4.74
673.921	4.73
674.249	4.68
674.576	4.54
674.904	4.56
675.231	4.52
675.558	4.54
675.886	4.62
676.213	4.52
676.54	4.48
676.867	4.53
677.195	4.47
677.522	4.45
677.849	4.43
678.176	4.4
678.503	4.43
678.83	4.37
679.157	4.44
679.484	4.42
679.81	4.45
680.137	4.28
680.464	4.26
680.791	4.24
681.117	4.3
681.444	4.45
681.771	4.39
682.097	4.37
682.424	4.37
682.75	4.32
683.077	4.32
683.403	4.31
683.729	4.27
684.056	4.33
684.382	4.4
684.708	4.39
685.034	4.32
685.36	4.3
685.686	4.25
686.012	4.18
686.339	4.25
686.664	4.25
686.99	4.39
687.316	4.34
687.642	4.46
687.968	4.41
688.294	4.37
688.619	4.45
688.945	4.48
689.271	4.38
689.596	4.35
689.922	4.29
690.247	4.27
690.573	4.29
690.898	4.24
691.224	4.26
691.549	4.33
691.874	4.33
692.2	4.29
692.525	4.43
692.85	4.5
693.175	4.4
693.5	4.3
693.825	4.28
694.15	4.32
694.475	4.3
694.8	4.31
695.125	4.32
695.45	4.32
695.775	4.41
696.099	4.48
696.424	4.43
696.749	4.47
697.073	4.52
697.398	4.47
697.723	4.54
698.047	4.48
698.372	4.46
698.696	4.48
699.02	4.46
699.345	4.36
699.669	4.35
699.993	4.39
700.318	4.38
700.642	4.27
700.966	4.21
701.29	4.14
701.614	4.24
701.938	4.22
702.262	4.28
702.586	4.18
702.91	4.15
703.234	4.19
703.557	4.25
703.881	4.18
704.205	4.22
704.529	4.26
704.852	4.26
705.176	4.24
705.499	4.44
705.823	4.46
706.146	4.57
706.47	4.56
706.793	4.52
707.117	4.6
707.44	4.75
707.763	4.79
708.086	4.74
708.409	4.59
708.733	4.64
709.056	4.66
709.379	4.87
709.702	4.86
710.025	4.82
710.348	4.88
710.671	4.95
710.993	5.06
711.316	4.94
711.639	4.95
711.962	5.06
712.284	4.91
712.607	5.01
712.93	5.03
713.252	5.03
713.575	5.1
713.897	4.98
714.22	5
714.542	5.07
714.864	5.1
715.187	5.25
715.509	5.28
715.831	5.18
716.153	5.13
716.475	5.08
716.798	5.07
717.12	4.96
717.442	4.84
717.764	4.69
718.085	4.78
718.407	4.81
718.729	4.66
719.051	4.78
719.373	4.69
719.695	4.61
720.016	4.6
720.338	4.53
720.659	4.58
720.981	4.54
721.302	4.51
721.624	4.66
721.945	4.56
722.267	4.7
722.588	4.76
722.909	4.75
723.231	4.76
723.552	4.87
723.873	4.98
724.194	5.15
724.515	5.26
724.836	5.19
725.157	5.37
725.478	5.39
725.799	5.29
726.12	5.27
726.441	5.27
726.762	5.39
727.083	5.36
727.403	5.5
727.724	5.62
728.045	5.64
728.365	5.47
728.686	5.35
729.006	5.28
729.327	5.31
729.647	5.48
729.967	5.54
730.288	5.59
730.608	5.42
730.928	5.31
731.249	5.17
731.569	5.21
731.889	5.14
732.209	5.09
732.529	5.05
732.849	5.05
733.169	5.06
733.489	4.93
733.809	4.78
734.129	4.72
734.448	4.83
734.768	4.66
735.088	4.77
735.408	4.79
735.727	4.82
736.047	4.92
736.366	4.7
736.686	4.57
737.005	4.46
737.325	4.41
737.644	4.4
737.963	4.58
738.283	4.27
738.602	4.28
738.921	4.39
739.24	4.53
739.56	4.37
739.879	4.34
740.198	4.44
740.517	4.72
740.836	4.83
741.155	4.7
741.473	4.82
741.792	4.77
742.111	4.83
742.43	4.67
742.748	4.44
743.067	4.56
743.386	4.66
743.704	4.45
744.023	4.68
744.341	4.69
744.66	4.84
744.978	5.2
745.297	5.04
745.615	5.15
745.933	5.13
746.252	5.36
746.57	5.52
746.888	5.25
747.206	5.02
747.524	4.91
747.842	4.9
748.16	4.96
748.478	5.1
748.796	5.08
749.114	5.22
749.432	5.23
749.749	5.24
750.067	5.3
750.385	5.5
750.703	5.52
751.02	5.52
751.338	5.33
751.655	5.28
751.973	5.29
752.29	5.05
752.608	4.94
752.925	5.18
753.242	5.21
753.56	5.36
753.877	5.55
754.194	5.65
754.511	5.74
754.828	5.66
755.145	5.53
755.462	5.76
755.779	5.89
756.096	5.88
756.413	5.8
756.73	5.85
757.047	5.9
757.364	5.89
757.68	6.02
757.997	5.92
758.314	5.98
758.63	6.04
758.947	6.11
759.264	6.06
759.58	5.58
759.896	5.7
760.213	5.77
760.529	5.68
760.846	5.7
761.162	5.57
761.478	5.73
761.794	5.61
762.11	5.58
762.426	5.5
762.743	5.35
763.059	5.31
763.375	5.35
763.69	5.46
764.006	5.55
764.322	5.58
764.638	5.75
764.954	5.8
765.27	5.83
765.585	5.94
765.901	6.09
766.216	6.16
766.532	5.95
766.848	5.76
767.163	5.72
767.478	5.64
767.794	5.66
768.109	5.52
768.424	5.62
768.74	5.33
769.055	5.27
769.37	5.54
769.685	5.4
770	5.41
770.315	5.29
770.63	5.36
770.945	5.06
771.26	5.03
771.575	4.89
771.89	4.87
772.205	4.61
772.52	4.22
772.834	4.24
773.149	4.39
773.464	4.75
773.778	5.36
774.093	5.25
774.407	5.27
774.722	5.17
775.036	5.47
775.351	5.77
775.665	5.42
775.979	5.25
776.293	5.18
776.608	5.04
776.922	5.15
777.236	5.08
777.55	5.06
777.864	5.06
778.178	5.49
778.492	5.94
778.806	6.01
779.12	6.44
779.434	6.7
779.747	6.75
780.061	6.67
780.375	6.23
780.689	6.33
781.002	6.5
781.316	6.87
781.629	6.96
781.943	7
782.256	7.66
782.57	7.61
782.883	7.87
783.196	7.78
783.51	7.4
783.823	6.84
784.136	7.53
784.449	7.41
784.762	6.67
785.075	6.21
785.388	5.98
785.701	5.99
786.014	5.84
786.327	5.58
786.64	5.85
786.953	6.03
787.266	5.82
787.578	6.12
787.891	6.02
788.204	5.68
788.516	5.65
788.829	5.28
789.141	5.64
789.454	5.74
789.766	5.92
790.079	6.45
790.391	6.49
790.703	6.43
791.016	6.41
791.328	6.84
791.64	7.12
791.952	7.65
792.264	7.56
792.576	7.68
792.888	8.21
793.2	8.16
793.512	7.83
793.824	8.03
794.136	7.68
794.448	7.59
794.76	7.58
795.071	7.95
795.383	8.13
795.695	7.92
796.006	7.6
796.318	7.97
796.629	7.84
796.941	8.2
797.252	8.46
797.564	8.73
797.875	8.67
798.186	7.87
798.497	7.84
798.809	7.79
799.12	7.62
799.431	7.19
799.742	6.84
800.053	7.36
800.364	7.56
800.675	7.15
800.986	6.77
801.297	6.65
801.608	5.86
801.918	5.8
802.229	5.84
802.54	6.01
802.851	5.36
803.161	5.86
803.472	5.95
803.782	5.76
804.093	6.03
804.403	5.82
804.714	6.54
805.024	5.67
805.334	5.69
805.645	5.89
805.955	6.08
806.265	6.51
806.575	5.77
806.885	5.69
807.195	6.1
807.505	7.24
807.815	7.88
808.125	8.01
808.435	7.89
808.745	8.04
809.055	9.11
809.365	9.54
809.674	8.58
809.984	9.07
810.294	8.71
810.603	8.44
810.913	8.97
811.222	8.56
811.532	9.42
811.841	10.15
812.151	10.86
812.46	11.16
812.769	11.02
813.079	11.35
813.388	10.85
813.697	10.68
814.006	10.05
814.315	9.49
814.624	9.41
814.933	9.85
815.242	9.79
815.551	8.88
815.86	8.56
816.169	8.52
816.478	7.84
816.786	8.17
817.095	7.84
817.404	8.26
817.712	8.33
818.021	7.75
818.33	7.03
818.638	6.42
818.947	6.13
819.255	6.24
819.563	6.41
819.872	6.85
820.18	6.91
820.488	7.08
820.796	7.39
821.105	7.41
821.413	7.47
821.721	7.49
822.029	7.57
822.337	7.63
822.645	7.75
822.953	7.7
823.26	7.7
823.568	7.69
823.876	7.53
824.184	7.53
824.491	7.58
824.799	7.71
825.107	7.86
825.414	7.85
825.722	7.88
826.029	8.07
826.337	8.19
826.644	8.22
826.951	8.01
827.259	7.85
827.566	7.89
827.873	7.64
828.18	7.66
828.488	7.64
828.795	7.59
829.102	7.53
829.409	8
829.716	7.86
830.023	8
830.329	7.95
830.636	8.2
830.943	8.17
831.25	8.13
831.557	8.22
831.863	8.22
832.17	8.12
832.476	8.14
832.783	8.19
833.089	8.21
833.396	8.86
833.702	9.15
834.009	9.42
834.315	9.87
834.621	9.91
834.928	9.97
835.234	10.17
835.54	10.29
835.846	10.06
836.152	10.47
836.458	10.21
836.764	10.47
837.07	9.71
837.376	9.71
837.682	9.66
837.988	8.99
838.293	9.25
838.599	9.31
838.905	8.93
839.211	8.58
839.516	9.26
839.822	9.7
840.127	9.28
840.433	9.2
840.738	9.26
841.044	9.77
841.349	9.73
841.654	10.19
841.959	10.64
842.265	10.94
842.57	10.13
842.875	10.44
843.18	9.91
843.485	11.78
843.79	12.22
844.095	12.06
844.4	13.54
844.705	13.46
845.01	13.83
845.315	13
845.619	12.82
845.924	11.44
846.229	10.26
846.533	10.2
846.838	9.39
847.142	8.86
847.447	7.05
847.751	6.01
848.056	4.14
848.36	2.68
848.664	1.22
848.969	1.28
849.273	0.64
849.577	2.07
849.881	1.03
850.185	3.45
850.489	3.28
850.794	1.39
851.097	1.49
851.401	2.37
851.705	2.36
852.009	4.34
852.313	4.07
852.617	0.77
852.92	1.92
853.224	2.46
853.528	2.18
853.831	2.55
854.135	4.05
854.438	4.27
854.742	4.62
855.045	4.91
855.349	4.23
855.652	3.93
855.955	2.86
856.259	1.49
856.562	0.06
856.865	1.92
857.168	3.48
857.471	3.34
857.774	1.36
858.077	3.46
858.38	3.61
858.683	3.57
858.986	7.28
859.289	8.1
859.592	9.87
859.894	10.1
860.197	10.6
860.5	8.9
860.802	8.69
861.105	8.92
861.407	8.4
861.71	8.43
862.012	8.97
862.315	9.35
862.617	11.05
862.919	9.47
863.222	8.7
863.524	7.57
863.826	9.63
864.128	10.58
864.43	8.81
864.732	6.44
865.034	6.16
865.336	4.44
865.638	2.79
865.94	-0.74
866.242	1.3
866.544	1.95
866.846	0.85
867.147	2.43
867.449	3.81
867.751	2.25
868.052	4.73
868.354	5.91
868.655	6.08
868.957	5.78
869.258	6.2
869.56	5.97
869.861	4.06
870.162	1.98
870.463	3.75
870.765	5.19
871.066	5.56
871.367	6.84
871.668	7.69
871.969	5.59
872.27	6.94
872.571	6.07
872.872	6.93
873.173	7.92
873.473	6.26
873.774	6.47
874.075	6.88
874.376	3.26
874.676	2.59
874.977	2.11
875.277	4.09
875.578	4.6
875.878	3.59
876.179	5.71
876.479	6.23
876.78	4.24
877.08	3.39
877.38	2.53
877.68	1.49
877.981	0.62
878.281	4.28
878.581	5.5
