Data from BA57750_Reflection_00008.txt Node
Date: Mon Nov 18 15:46:41 EST 2019
User: vgr7
Spectrometer: USB2G7710
Scans to average: 3
Trigger mode: 4
Integration Time (sec): 2.000000E-2
Electric dark correction enabled: true
Boxcar width: 10
XAxis mode: Wavelengths
Number of Pixels in Spectrum: 2048
>>>>>Begin Spectral Data<<<<<
177.721	-22.01
178.105	-23.03
178.488	395.08
178.871	62.91
179.254	79.05
179.636	66.91
180.019	162.86
180.402	181.25
180.785	1.42
181.168	19.16
181.55	31.72
181.933	102.95
182.316	140.11
182.698	91.26
183.081	103.46
183.463	183.75
183.846	306.9
184.228	244.75
184.611	326.57
184.993	127.94
185.376	276.18
185.758	317.85
186.14	314.67
186.522	141.33
186.904	130.95
187.287	117.74
187.669	191.34
188.051	166.1
188.433	166.15
188.815	270.13
189.197	5176.92
189.579	465.22
189.961	1994.74
190.342	239.53
190.724	39.04
191.106	26.59
191.488	31.69
191.869	22.91
192.251	15.64
192.633	44.14
193.014	-22.38
193.396	17.57
193.777	55.41
194.159	46.56
194.54	52.33
194.922	72.07
195.303	44.16
195.684	57.54
196.065	71.32
196.447	61.91
196.828	52.87
197.209	25.02
197.59	9.2
197.971	17.07
198.352	21.81
198.733	21.11
199.114	23.79
199.495	23.58
199.876	27.03
200.257	31.41
200.638	29.66
201.018	33.6
201.399	14.61
201.78	18.76
202.16	2.1
202.541	-20.09
202.922	-25.61
203.302	-46.09
203.683	-42.91
204.063	-60.43
204.444	-42.67
204.824	-39.01
205.204	-53.89
205.585	-48.7
205.965	-47.1
206.345	-62.27
206.725	-68.36
207.106	-96.64
207.486	-157.78
207.866	-168.28
208.246	-140.71
208.626	-130.25
209.006	-123.73
209.386	-142.88
209.766	-160.87
210.145	-183.05
210.525	-146.92
210.905	-135.63
211.285	-132.79
211.664	-117.16
212.044	-150.16
212.424	-113.23
212.803	-77.57
213.183	-59
213.562	-47.93
213.942	-22.66
214.321	-19.19
214.701	-27.96
215.08	-20.18
215.459	4.43
215.838	15.45
216.218	13.31
216.597	17.36
216.976	18.48
217.355	20.53
217.734	15.67
218.113	22.99
218.492	27.45
218.871	30.33
219.25	17.34
219.629	22.58
220.008	10.67
220.387	1.67
220.766	2.91
221.144	1.33
221.523	-0.55
221.902	-3.56
222.28	-3.53
222.659	10.56
223.037	39.23
223.416	13.23
223.794	6.91
224.173	-3.27
224.551	4.07
224.929	4.54
225.308	21.56
225.686	24.27
226.064	19.28
226.442	21.76
226.821	23.92
227.199	22
227.577	14.45
227.955	14.72
228.333	12.66
228.711	12.04
229.089	13.67
229.467	13.58
229.845	11.45
230.222	9.55
230.6	6.9
230.978	1.45
231.356	5.37
231.733	5.43
232.111	5.56
232.488	6.43
232.866	6.64
233.243	5.13
233.621	2.77
233.998	3.82
234.376	1.51
234.753	1.42
235.13	1.04
235.508	1.99
235.885	2.95
236.262	3.43
236.639	2.11
237.016	2.68
237.393	3.73
237.77	3.86
238.147	5.38
238.524	5.8
238.901	5.99
239.278	5.55
239.655	5.69
240.032	5.48
240.409	4.65
240.785	4.79
241.162	4.33
241.539	4.79
241.915	4.26
242.292	4.01
242.668	3.85
243.045	3.92
243.421	3.67
243.798	3.48
244.174	3.54
244.551	3.54
244.927	3.32
245.303	3.22
245.679	3.32
246.056	3.08
246.432	3.15
246.808	3.18
247.184	3.05
247.56	2.78
247.936	2.96
248.312	2.94
248.688	2.82
249.064	2.91
249.44	2.84
249.815	2.98
250.191	3.27
250.567	3.38
250.943	3.5
251.318	3.8
251.694	3.66
252.069	3.49
252.445	3.5
252.82	3.51
253.196	3.29
253.571	3.34
253.947	3.33
254.322	3.45
254.697	3.48
255.073	3.42
255.448	3.42
255.823	3.34
256.198	3.47
256.573	3.37
256.948	3.45
257.323	3.42
257.698	3.41
258.073	3.23
258.448	3.15
258.823	3.21
259.198	2.99
259.573	3
259.948	3.12
260.322	3.32
260.697	3.23
261.072	3.29
261.446	3.25
261.821	3.28
262.195	3.35
262.57	3.24
262.944	3.21
263.319	3.27
263.693	3.08
264.067	3.16
264.442	3.39
264.816	3.37
265.19	3.29
265.564	3.21
265.938	3.29
266.313	3.19
266.687	3.09
267.061	3.17
267.435	3.16
267.809	3.13
268.183	3.21
268.556	3.14
268.93	3.35
269.304	3.37
269.678	3.45
270.051	3.3
270.425	3.42
270.799	3.39
271.172	3.22
271.546	3.42
271.919	3.21
272.293	3.18
272.666	3.11
273.04	3.14
273.413	3.13
273.787	3
274.16	2.94
274.533	2.85
274.906	2.86
275.279	3.1
275.653	3.05
276.026	2.94
276.399	3.19
276.772	2.89
277.145	2.66
277.518	2.73
277.891	2.86
278.263	2.74
278.636	2.86
279.009	2.98
279.382	2.96
279.755	3.08
280.127	3.07
280.5	3.07
280.872	3.12
281.245	3.19
281.617	3.43
281.99	3.59
282.362	3.71
282.735	3.53
283.107	3.2
283.479	3.16
283.852	3.13
284.224	3.07
284.596	3.16
284.968	3.29
285.34	3.27
285.713	3.12
286.085	3.25
286.457	3.27
286.829	3.34
287.201	3.4
287.572	3.28
287.944	3.35
288.316	3.46
288.688	3.44
289.06	3.39
289.431	3.27
289.803	3.36
290.175	3.41
290.546	3.59
290.918	3.78
291.289	3.87
291.661	3.89
292.032	3.89
292.403	3.86
292.775	3.95
293.146	3.95
293.517	3.99
293.889	3.98
294.26	3.87
294.631	3.95
295.002	3.88
295.373	4
295.744	3.92
296.115	3.91
296.486	3.76
296.857	3.86
297.228	3.95
297.599	3.79
297.97	3.7
298.34	3.76
298.711	3.81
299.082	3.95
299.452	3.97
299.823	4.08
300.194	4.09
300.564	4.02
300.935	4.06
301.305	4.1
301.676	4.12
302.046	4.24
302.416	4.28
302.787	4.4
303.157	4.47
303.527	4.54
303.897	4.62
304.267	5.07
304.637	5.17
305.008	5.21
305.378	5.37
305.748	5.45
306.117	5.53
306.487	5.55
306.857	5.54
307.227	5.64
307.597	5.73
307.967	5.8
308.336	5.91
308.706	5.89
309.076	5.9
309.445	6.01
309.815	6.07
310.184	6.02
310.554	6.07
310.923	6.07
311.293	6.03
311.662	6.01
312.031	5.86
312.401	5.78
312.77	5.8
313.139	5.86
313.508	5.94
313.877	5.91
314.246	5.95
314.616	5.92
314.985	6.01
315.353	5.9
315.722	6.02
316.091	6.08
316.46	6.16
316.829	6.35
317.198	6.4
317.567	6.39
317.935	6.43
318.304	6.46
318.672	6.55
319.041	6.72
319.41	6.76
319.778	6.88
320.147	7.16
320.515	7.22
320.883	7.27
321.252	7.34
321.62	7.39
321.988	7.52
322.357	7.61
322.725	7.56
323.093	7.73
323.461	7.77
323.829	7.83
324.197	7.87
324.565	7.89
324.933	7.89
325.301	8.01
325.669	8.1
326.037	8.15
326.405	8.18
326.772	8.32
327.14	8.51
327.508	8.62
327.875	8.57
328.243	8.68
328.61	8.68
328.978	8.83
329.346	9
329.713	9.04
330.08	9.14
330.448	9.16
330.815	9.08
331.182	9.15
331.55	9.21
331.917	9.32
332.284	9.42
332.651	9.46
333.018	9.6
333.385	9.75
333.752	9.84
334.119	9.94
334.486	9.84
334.853	9.83
335.22	9.76
335.587	9.84
335.954	9.82
336.32	9.78
336.687	9.64
337.054	9.61
337.42	9.7
337.787	9.65
338.153	9.73
338.52	9.89
338.886	9.83
339.253	9.82
339.619	9.83
339.986	9.78
340.352	9.78
340.718	9.77
341.084	9.67
341.451	9.69
341.817	9.8
342.183	9.82
342.549	9.74
342.915	9.9
343.281	9.91
343.647	9.91
344.013	9.96
344.379	10.03
344.745	10.12
345.11	10.04
345.476	10.13
345.842	10.15
346.208	10.14
346.573	10.22
346.939	10.39
347.304	10.28
347.67	10.35
348.035	10.47
348.401	10.52
348.766	10.61
349.132	10.61
349.497	10.48
349.862	10.51
350.228	10.56
350.593	10.45
350.958	10.39
351.323	10.44
351.688	10.54
352.053	10.62
352.418	10.51
352.783	10.59
353.148	10.52
353.513	10.52
353.878	10.46
354.243	10.53
354.608	10.39
354.972	10.44
355.337	10.46
355.702	10.47
356.066	10.41
356.431	10.34
356.795	10.33
357.16	10.37
357.524	10.36
357.889	10.4
358.253	10.48
358.618	10.51
358.982	10.51
359.346	10.35
359.71	10.35
360.075	10.34
360.439	10.32
360.803	10.38
361.167	10.4
361.531	10.44
361.895	10.39
362.259	10.46
362.623	10.38
362.987	10.36
363.351	10.36
363.714	10.33
364.078	10.3
364.442	10.26
364.806	10.22
365.169	10.25
365.533	10.24
365.896	10.21
366.26	10.2
366.623	10.16
366.987	10.24
367.35	10.19
367.714	10.26
368.077	10.19
368.44	10.12
368.803	10.14
369.167	10.06
369.53	10
369.893	9.97
370.256	10.03
370.619	10.05
370.982	9.93
371.345	9.89
371.708	9.95
372.071	9.88
372.434	9.87
372.797	9.79
373.159	9.7
373.522	9.64
373.885	9.61
374.247	9.58
374.61	9.56
374.973	9.45
375.335	9.36
375.698	9.44
376.06	9.4
376.423	9.31
376.785	9.31
377.147	9.27
377.51	9.2
377.872	9.18
378.234	9.09
378.596	9.05
378.958	9.01
379.321	8.95
379.683	8.97
380.045	8.9
380.407	8.89
380.769	8.86
381.13	8.85
381.492	8.79
381.854	8.79
382.216	8.76
382.578	8.79
382.939	8.77
383.301	8.62
383.663	8.6
384.024	8.56
384.386	8.58
384.747	8.59
385.109	8.58
385.47	8.44
385.832	8.4
386.193	8.35
386.554	8.33
386.916	8.28
387.277	8.24
387.638	8.24
387.999	8.17
388.36	8.16
388.721	8.1
389.082	8.05
389.443	7.98
389.804	7.89
390.165	7.84
390.526	7.8
390.887	7.82
391.248	7.79
391.609	7.74
391.969	7.66
392.33	7.58
392.691	7.51
393.051	7.52
393.412	7.47
393.772	7.45
394.133	7.42
394.493	7.38
394.854	7.3
395.214	7.22
395.574	7.22
395.935	7.14
396.295	7.1
396.655	7.04
397.015	6.98
397.376	6.93
397.736	6.88
398.096	6.83
398.456	6.75
398.816	6.73
399.176	6.66
399.535	6.56
399.895	6.51
400.255	6.47
400.615	6.44
400.975	6.38
401.334	6.34
401.694	6.27
402.054	6.17
402.413	6.17
402.773	6.1
403.132	6.05
403.492	6.02
403.851	5.99
404.211	5.94
404.57	5.89
404.929	5.86
405.288	5.81
405.648	5.74
406.007	5.69
406.366	5.6
406.725	5.6
407.084	5.61
407.443	5.59
407.802	5.6
408.161	5.56
408.52	5.56
408.879	5.51
409.238	5.49
409.596	5.5
409.955	5.47
410.314	5.46
410.673	5.43
411.031	5.4
411.39	5.36
411.748	5.35
412.107	5.34
412.465	5.31
412.824	5.27
413.182	5.25
413.54	5.25
413.899	5.21
414.257	5.17
414.615	5.11
414.974	5.07
415.332	4.98
415.69	4.94
416.048	4.9
416.406	4.87
416.764	4.81
417.122	4.77
417.48	4.71
417.838	4.69
418.195	4.65
418.553	4.63
418.911	4.59
419.269	4.57
419.626	4.54
419.984	4.51
420.342	4.5
420.699	4.46
421.057	4.43
421.414	4.43
421.772	4.4
422.129	4.38
422.486	4.35
422.844	4.34
423.201	4.32
423.558	4.29
423.915	4.28
424.273	4.28
424.63	4.27
424.987	4.25
425.344	4.22
425.701	4.21
426.058	4.19
426.415	4.19
426.772	4.18
427.128	4.18
427.485	4.18
427.842	4.14
428.199	4.16
428.555	4.14
428.912	4.13
429.269	4.11
429.625	4.1
429.982	4.09
430.338	4.09
430.695	4.07
431.051	4.04
431.407	4.02
431.764	4
432.12	3.99
432.476	3.96
432.832	3.96
433.189	3.94
433.545	3.92
433.901	3.89
434.257	3.86
434.613	3.86
434.969	3.85
435.325	3.86
435.681	3.84
436.036	3.83
436.392	3.84
436.748	3.84
437.104	3.84
437.459	3.84
437.815	3.84
438.171	3.85
438.526	3.86
438.882	3.86
439.237	3.86
439.593	3.86
439.948	3.88
440.304	3.87
440.659	3.88
441.014	3.86
441.369	3.86
441.725	3.84
442.08	3.83
442.435	3.82
442.79	3.81
443.145	3.82
443.5	3.8
443.855	3.78
444.21	3.77
444.565	3.76
444.92	3.75
445.275	3.72
445.629	3.71
445.984	3.7
446.339	3.7
446.693	3.67
447.048	3.67
447.403	3.64
447.757	3.63
448.112	3.61
448.466	3.61
448.82	3.61
449.175	3.61
449.529	3.6
449.883	3.57
450.238	3.56
450.592	3.54
450.946	3.52
451.3	3.51
451.654	3.5
452.008	3.47
452.362	3.44
452.716	3.45
453.07	3.44
453.424	3.42
453.778	3.4
454.132	3.41
454.486	3.4
454.839	3.42
455.193	3.41
455.547	3.4
455.9	3.41
456.254	3.41
456.607	3.4
456.961	3.4
457.314	3.4
457.668	3.37
458.021	3.38
458.375	3.38
458.728	3.37
459.081	3.38
459.434	3.38
459.787	3.39
460.141	3.38
460.494	3.39
460.847	3.4
461.2	3.41
461.553	3.41
461.906	3.42
462.259	3.42
462.611	3.42
462.964	3.44
463.317	3.45
463.67	3.44
464.022	3.45
464.375	3.46
464.728	3.51
465.08	3.53
465.433	3.55
465.785	3.57
466.138	3.59
466.49	3.59
466.843	3.6
467.195	3.63
467.547	3.66
467.899	3.66
468.252	3.66
468.604	3.68
468.956	3.68
469.308	3.69
469.66	3.68
470.012	3.71
470.364	3.73
470.716	3.74
471.068	3.77
471.42	3.78
471.772	3.8
472.123	3.8
472.475	3.81
472.827	3.83
473.178	3.84
473.53	3.85
473.882	3.87
474.233	3.9
474.585	3.87
474.936	3.85
475.288	3.87
475.639	3.89
475.99	3.9
476.342	3.91
476.693	3.89
477.044	3.93
477.395	3.92
477.746	3.92
478.097	3.93
478.448	3.92
478.8	3.91
479.15	3.89
479.501	3.89
479.852	3.89
480.203	3.89
480.554	3.88
480.905	3.87
481.255	3.87
481.606	3.88
481.957	3.88
482.307	3.88
482.658	3.88
483.009	3.87
483.359	3.86
483.709	3.86
484.06	3.87
484.41	3.86
484.761	3.86
485.111	3.86
485.461	3.85
485.811	3.84
486.162	3.84
486.512	3.84
486.862	3.84
487.212	3.84
487.562	3.84
487.912	3.84
488.262	3.84
488.612	3.85
488.961	3.84
489.311	3.84
489.661	3.85
490.011	3.86
490.36	3.84
490.71	3.85
491.06	3.86
491.409	3.87
491.759	3.87
492.108	3.88
492.458	3.88
492.807	3.9
493.157	3.92
493.506	3.95
493.855	3.96
494.204	3.98
494.554	3.99
494.903	4
495.252	4.03
495.601	4.06
495.95	4.07
496.299	4.12
496.648	4.17
496.997	4.21
497.346	4.25
497.695	4.32
498.043	4.35
498.392	4.38
498.741	4.4
499.09	4.44
499.438	4.48
499.787	4.54
500.135	4.59
500.484	4.62
500.832	4.66
501.181	4.73
501.529	4.77
501.878	4.86
502.226	4.92
502.574	4.96
502.923	5.01
503.271	5.08
503.619	5.13
503.967	5.17
504.315	5.24
504.663	5.29
505.011	5.37
505.359	5.45
505.707	5.53
506.055	5.62
506.403	5.69
506.751	5.76
507.098	5.84
507.446	5.92
507.794	5.99
508.141	6.08
508.489	6.16
508.837	6.23
509.184	6.3
509.531	6.39
509.879	6.5
510.226	6.59
510.574	6.65
510.921	6.74
511.268	6.85
511.616	6.94
511.963	7.05
512.31	7.15
512.657	7.28
513.004	7.41
513.351	7.54
513.698	7.67
514.045	7.81
514.392	7.93
514.739	8.05
515.086	8.2
515.432	8.33
515.779	8.47
516.126	8.62
516.473	8.77
516.819	8.88
517.166	9.01
517.512	9.13
517.859	9.24
518.205	9.36
518.552	9.46
518.898	9.56
519.245	9.67
519.591	9.78
519.937	9.87
520.283	10.01
520.629	10.16
520.976	10.3
521.322	10.45
521.668	10.6
522.014	10.78
522.36	10.95
522.706	11.12
523.052	11.31
523.398	11.52
523.743	11.72
524.089	11.94
524.435	12.13
524.781	12.34
525.126	12.57
525.472	12.75
525.817	12.92
526.163	13.08
526.509	13.24
526.854	13.38
527.199	13.52
527.545	13.63
527.89	13.74
528.235	13.88
528.581	14.03
528.926	14.17
529.271	14.31
529.616	14.45
529.961	14.61
530.306	14.77
530.651	14.93
530.996	15.1
531.341	15.27
531.686	15.47
532.031	15.64
532.376	15.82
532.721	16
533.065	16.2
533.41	16.43
533.755	16.67
534.099	16.94
534.444	17.2
534.788	17.46
535.133	17.7
535.477	17.94
535.822	18.2
536.166	18.46
536.51	18.75
536.855	19.06
537.199	19.36
537.543	19.66
537.887	19.97
538.231	20.3
538.576	20.61
538.92	20.92
539.264	21.2
539.608	21.49
539.951	21.78
540.295	22.05
540.639	22.3
540.983	22.52
541.327	22.73
541.671	22.95
542.014	23.18
542.358	23.41
542.701	23.62
543.045	23.83
543.389	24.07
543.732	24.27
544.075	24.55
544.419	24.8
544.762	25.06
545.105	25.34
545.449	25.61
545.792	25.89
546.135	26.21
546.478	26.55
546.821	26.86
547.165	27.19
547.508	27.51
547.851	27.82
548.194	28.13
548.536	28.42
548.879	28.76
549.222	29.03
549.565	29.35
549.908	29.71
550.25	30.01
550.593	30.31
550.936	30.65
551.278	30.91
551.621	31.22
551.963	31.51
552.306	31.79
552.648	32.02
552.991	32.32
553.333	32.55
553.675	32.79
554.017	33.04
554.36	33.28
554.702	33.57
555.044	33.79
555.386	34.05
555.728	34.35
556.07	34.58
556.412	34.81
556.754	35.03
557.096	35.3
557.438	35.54
557.78	35.79
558.121	36.09
558.463	36.28
558.805	36.5
559.147	36.71
559.488	36.95
559.83	37.21
560.171	37.39
560.513	37.65
560.854	37.89
561.196	38.09
561.537	38.28
561.878	38.41
562.22	38.61
562.561	38.79
562.902	38.95
563.243	39.12
563.584	39.31
563.925	39.47
564.266	39.58
564.607	39.72
564.948	39.9
565.289	39.98
565.63	40.11
565.971	40.27
566.312	40.39
566.653	40.57
566.993	40.71
567.334	40.83
567.675	40.91
568.015	41.03
568.356	41.21
568.696	41.37
569.037	41.5
569.377	41.64
569.718	41.77
570.058	41.9
570.398	42.03
570.739	42.2
571.079	42.35
571.419	42.5
571.759	42.6
572.099	42.72
572.439	42.85
572.779	43.03
573.119	43.12
573.459	43.24
573.799	43.27
574.139	43.35
574.479	43.5
574.819	43.61
575.158	43.69
575.498	43.78
575.838	43.84
576.177	44
576.517	44.15
576.856	44.25
577.196	44.35
577.535	44.45
577.875	44.52
578.214	44.61
578.553	44.71
578.893	44.83
579.232	44.86
579.571	44.98
579.91	44.97
580.25	45.1
580.589	45.18
580.928	45.24
581.267	45.32
581.606	45.32
581.945	45.39
582.283	45.49
582.622	45.6
582.961	45.73
583.3	45.71
583.639	45.78
583.977	45.89
584.316	45.9
584.654	45.93
584.993	46.04
585.332	46.07
585.67	46.15
586.008	46.21
586.347	46.34
586.685	46.3
587.024	46.41
587.362	46.42
587.7	46.5
588.038	46.59
588.376	46.68
588.715	46.79
589.053	46.8
589.391	46.79
589.729	46.86
590.067	46.91
590.404	46.97
590.742	47.01
591.08	47.01
591.418	47.1
591.756	47.15
592.093	47.19
592.431	47.26
592.769	47.22
593.106	47.3
593.444	47.29
593.781	47.38
594.119	47.46
594.456	47.5
594.793	47.57
595.131	47.67
595.468	47.73
595.805	47.78
596.143	47.86
596.48	47.93
596.817	47.94
597.154	47.9
597.491	47.97
597.828	47.89
598.165	47.88
598.502	47.93
598.839	48.01
599.176	47.98
599.512	48.04
599.849	48.14
600.186	48.12
600.523	48.23
600.859	48.27
601.196	48.3
601.532	48.3
601.869	48.29
602.205	48.26
602.542	48.24
602.878	48.25
603.215	48.25
603.551	48.27
603.887	48.24
604.223	48.31
604.56	48.31
604.896	48.39
605.232	48.51
605.568	48.49
605.904	48.45
606.24	48.47
606.576	48.42
606.912	48.38
607.248	48.42
607.583	48.4
607.919	48.42
608.255	48.37
608.591	48.48
608.926	48.54
609.262	48.59
609.597	48.61
609.933	48.58
610.268	48.67
610.604	48.73
610.939	48.82
611.275	48.87
611.61	48.88
611.945	48.88
612.281	48.86
612.616	48.9
612.951	48.97
613.286	49.06
613.621	49.16
613.956	49.19
614.291	49.28
614.626	49.39
614.961	49.43
615.296	49.52
615.631	49.47
615.966	49.51
616.3	49.53
616.635	49.6
616.97	49.7
617.304	49.74
617.639	49.76
617.973	49.74
618.308	49.84
618.642	49.88
618.977	49.93
619.311	49.99
619.646	49.98
619.98	49.93
620.314	49.89
620.648	49.91
620.983	49.96
621.317	49.97
621.651	49.96
621.985	49.96
622.319	49.98
622.653	49.99
622.987	49.96
623.321	49.99
623.655	49.98
623.988	49.97
624.322	49.9
624.656	49.81
624.99	49.82
625.323	49.68
625.657	49.67
625.99	49.73
626.324	49.67
626.657	49.75
626.991	49.83
627.324	49.87
627.658	49.9
627.991	49.91
628.324	49.93
628.657	49.9
628.991	49.99
629.324	49.96
629.657	50
629.99	49.95
630.323	49.92
630.656	49.9
630.989	49.85
631.322	49.9
631.655	49.93
631.987	49.94
632.32	50.05
632.653	50.09
632.986	50.03
633.318	50.13
633.651	50.16
633.984	50.17
634.316	50.14
634.649	50.11
634.981	50.12
635.313	50.1
635.646	50.04
635.978	50.01
636.31	50.12
636.643	50.09
636.975	50.15
637.307	50.17
637.639	50.29
637.971	50.38
638.303	50.42
638.635	50.47
638.967	50.43
639.299	50.36
639.631	50.29
639.963	50.36
640.295	50.23
640.626	50.13
640.958	50.01
641.29	50.06
641.621	50.11
641.953	50.12
642.285	50.19
642.616	50.14
642.948	50.09
643.279	50.07
643.61	50.06
643.942	50.15
644.273	50.21
644.604	50.15
644.936	50.14
645.267	50.04
645.598	50.05
645.929	50.04
646.26	50.2
646.591	50.3
646.922	50.29
647.253	50.46
647.584	50.55
647.915	50.6
648.245	50.66
648.576	50.62
648.907	50.61
649.238	50.55
649.568	50.57
649.899	50.54
650.229	50.45
650.56	50.4
650.89	50.31
651.221	50.23
651.551	50.14
651.882	50.18
652.212	50.26
652.542	50.31
652.872	50.39
653.203	50.24
653.533	50.25
653.863	50.26
654.193	50.19
654.523	50.28
654.853	50.39
655.183	50.32
655.513	50.32
655.843	50.28
656.172	50.27
656.502	50.31
656.832	50.41
657.162	50.45
657.491	50.47
657.821	50.47
658.15	50.52
658.48	50.57
658.809	50.63
659.139	50.61
659.468	50.51
659.798	50.46
660.127	50.46
660.456	50.53
660.785	50.44
661.115	50.46
661.444	50.39
661.773	50.34
662.102	50.35
662.431	50.44
662.76	50.48
663.089	50.62
663.418	50.77
663.747	50.71
664.076	50.77
664.404	50.88
664.733	51.01
665.062	50.99
665.39	50.91
665.719	50.82
666.048	50.88
666.376	51.03
666.705	51.07
667.033	51.06
667.362	51
667.69	51.05
668.018	51.04
668.347	51.02
668.675	51.06
669.003	51.01
669.331	50.98
669.659	51.02
669.987	50.84
670.315	50.79
670.643	50.8
670.971	50.74
671.299	50.69
671.627	50.66
671.955	50.76
672.283	50.88
672.61	50.93
672.938	50.84
673.266	50.79
673.593	50.7
673.921	50.67
674.249	50.65
674.576	50.65
674.904	50.63
675.231	50.62
675.558	50.69
675.886	50.73
676.213	50.65
676.54	50.67
676.867	50.77
677.195	50.76
677.522	50.65
677.849	50.72
678.176	50.69
678.503	50.58
678.83	50.5
679.157	50.5
679.484	50.44
679.81	50.53
680.137	50.44
680.464	50.53
680.791	50.52
681.117	50.58
681.444	50.61
681.771	50.66
682.097	50.68
682.424	50.52
682.75	50.63
683.077	50.7
683.403	50.68
683.729	50.71
684.056	50.7
684.382	50.8
684.708	50.78
685.034	50.8
685.36	50.89
685.686	51.03
686.012	51.04
686.339	51.03
686.664	50.99
686.99	51.21
687.316	51.17
687.642	51.3
687.968	51.29
688.294	51.27
688.619	51.18
688.945	51.2
689.271	51.33
689.596	51.12
689.922	51.18
690.247	51.21
690.573	51.2
690.898	51.18
691.224	51.26
691.549	51.28
691.874	51.23
692.2	51.17
692.525	51.06
692.85	51.04
693.175	51.07
693.5	51.11
693.825	50.99
694.15	50.96
694.475	50.98
694.8	50.85
695.125	50.82
695.45	50.83
695.775	50.71
696.099	50.56
696.424	50.54
696.749	50.38
697.073	50.53
697.398	50.55
697.723	50.55
698.047	50.47
698.372	50.47
698.696	50.48
699.02	50.61
699.345	50.67
699.669	50.71
699.993	50.67
700.318	50.61
700.642	50.63
700.966	50.68
701.29	50.54
701.614	50.71
701.938	50.75
702.262	50.69
702.586	50.79
702.91	50.99
703.234	51.05
703.557	51.07
703.881	50.81
704.205	50.82
704.529	50.91
704.852	51.07
705.176	50.99
705.499	51.02
705.823	50.92
706.146	50.74
706.47	50.73
706.793	50.86
707.117	50.98
707.44	51.05
707.763	51.01
708.086	51.09
708.409	50.94
708.733	51.02
709.056	51.02
709.379	51.23
709.702	51.09
710.025	51.19
710.348	51.36
710.671	51.39
710.993	51.37
711.316	51.21
711.639	51.07
711.962	51.26
712.284	51.26
712.607	51.28
712.93	51.3
713.252	51.11
713.575	51.01
713.897	51.15
714.22	51.11
714.542	51.13
714.864	51.2
715.187	51.21
715.509	51.15
715.831	51.16
716.153	50.69
716.475	50.71
716.798	50.75
717.12	50.74
717.442	50.78
717.764	50.72
718.085	50.88
718.407	51.01
718.729	50.93
719.051	50.84
719.373	50.78
719.695	50.65
720.016	50.88
720.338	51
720.659	50.85
720.981	50.86
721.302	51.03
721.624	50.9
721.945	50.89
722.267	50.76
722.588	50.71
722.909	50.87
723.231	50.8
723.552	50.56
723.873	50.53
724.194	50.36
724.515	50.44
724.836	50.32
725.157	50.43
725.478	50.36
725.799	50.63
726.12	50.69
726.441	50.98
726.762	50.89
727.083	50.83
727.403	50.68
727.724	50.55
728.045	50.42
728.365	50.57
728.686	50.66
729.006	50.71
729.327	50.81
729.647	50.91
729.967	50.87
730.288	51.11
730.608	51.03
730.928	51.32
731.249	51.27
731.569	51.33
731.889	51.13
732.209	51.28
732.529	51.23
732.849	51.16
733.169	50.99
733.489	51.1
733.809	50.86
734.129	51.08
734.448	51.17
734.768	51.05
735.088	51.1
735.408	51.05
735.727	51.08
736.047	51
736.366	50.94
736.686	51.01
737.005	50.93
737.325	51.04
737.644	50.71
737.963	50.73
738.283	50.65
738.602	50.62
738.921	50.47
739.24	50.3
739.56	50.48
739.879	50.52
740.198	50.57
740.517	50.83
740.836	50.65
741.155	50.4
741.473	50.61
741.792	50.38
742.111	50.43
742.43	50.76
742.748	50.72
743.067	50.86
743.386	50.97
743.704	51.21
744.023	51.11
744.341	51.24
744.66	51.08
744.978	51.39
745.297	51.48
745.615	51.23
745.933	51.45
746.252	51.43
746.57	51.61
746.888	51.47
747.206	51.31
747.524	51.24
747.842	51.6
748.16	51.52
748.478	51.45
748.796	51.43
749.114	51.17
749.432	51.28
749.749	51.21
750.067	51.12
750.385	50.56
750.703	50.63
751.02	50.57
751.338	50.84
751.655	50.68
751.973	50.41
752.29	50.48
752.608	50.56
752.925	50.46
753.242	50.55
753.56	50.42
753.877	50.6
754.194	50.84
754.511	50.55
754.828	50.69
755.145	50.65
755.462	50.76
755.779	50.53
756.096	50.42
756.413	50.42
756.73	50.46
757.047	50.84
757.364	50.86
757.68	50.76
757.997	50.78
758.314	50.31
758.63	50.6
758.947	50.57
759.264	50.26
759.58	50.17
759.896	49.99
760.213	49.92
760.529	50.04
760.846	49.73
761.162	49.82
761.478	49.8
761.794	49.95
762.11	50.09
762.426	50.41
762.743	50.61
763.059	50.67
763.375	50.73
763.69	50.73
764.006	50.84
764.322	51.1
764.638	50.9
764.954	51.11
765.27	50.92
765.585	51.09
765.901	51.18
766.216	51.25
766.532	51.34
766.848	51.22
767.163	51.12
767.478	51.36
767.794	51.44
768.109	51.34
768.424	51.33
768.74	50.91
769.055	50.82
769.37	50.82
769.685	50.67
770	51.05
770.315	50.68
770.63	50.46
770.945	50.25
771.26	50.3
771.575	50.45
771.89	50.6
772.205	50.33
772.52	50.3
772.834	50.41
773.149	50.14
773.464	50.85
773.778	50.82
774.093	50.34
774.407	50.37
774.722	50.08
775.036	50.12
775.351	50.65
775.665	50.43
775.979	50.27
776.293	50.45
776.608	49.78
776.922	50.43
777.236	50.56
777.55	50.47
777.864	50.45
778.178	50.79
778.492	50.98
778.806	51.33
779.12	51.22
779.434	51.12
779.747	51.4
780.061	51.12
780.375	50.94
780.689	51.11
781.002	51.07
781.316	51.32
781.629	51.65
781.943	51.15
782.256	51.23
782.57	51.13
782.883	51.25
783.196	50.88
783.51	51
783.823	51.37
784.136	51.88
784.449	51.64
784.762	50.94
785.075	50.96
785.388	51.15
785.701	51.46
786.014	51.12
786.327	50.96
786.64	51.19
786.953	51.73
787.266	51.82
787.578	51.82
787.891	52.2
788.204	51.68
788.516	52.39
788.829	52.7
789.141	53.11
789.454	53.41
789.766	53.81
790.079	53.36
790.391	53.16
790.703	53.3
791.016	53.68
791.328	54.35
791.64	53.97
791.952	53.55
792.264	53.17
792.576	54.09
792.888	54.02
793.2	54.27
793.512	53.81
793.824	53.86
794.136	54.25
794.448	53.74
794.76	53.48
795.071	52.76
795.383	52.43
795.695	52.26
796.006	51.83
796.318	51.76
796.629	51.75
796.941	51.37
797.252	50.82
797.564	50.73
797.875	49.88
798.186	50.59
798.497	50.9
798.809	51.24
799.12	50.5
799.431	50.67
799.742	50.03
800.053	50.23
800.364	50.29
800.675	49.67
800.986	50.11
801.297	50.39
801.608	50.14
801.918	49.9
802.229	50.05
802.54	49.73
802.851	49.42
803.161	49.15
803.472	49.29
803.782	49.7
804.093	49.79
804.403	50.42
804.714	50.15
805.024	49.6
805.334	50.09
805.645	50.53
805.955	49.97
806.265	50.24
806.575	50.3
806.885	50.07
807.195	50.35
807.505	50.42
807.815	50.43
808.125	50.76
808.435	50.72
808.745	50.45
809.055	50.02
809.365	50.61
809.674	51.09
809.984	50.22
810.294	49.74
810.603	49.57
810.913	49.78
811.222	49.94
811.532	50.19
811.841	49.76
812.151	49.96
812.46	50.39
812.769	50.2
813.079	50.16
813.388	50.04
813.697	50.4
814.006	49.28
814.315	50.08
814.624	50.81
814.933	51.33
815.242	51.39
815.551	51.98
815.86	52.13
816.169	51.94
816.478	52.94
816.786	52.97
817.095	53.58
817.404	53.48
817.712	53.23
818.021	53.38
818.33	53.28
818.638	52.48
818.947	52.35
819.255	52.3
819.563	51.75
819.872	51.92
820.18	51.62
820.488	51.73
820.796	51.67
821.105	51.25
821.413	51.37
821.721	51.45
822.029	51.51
822.337	51.39
822.645	51.52
822.953	51.66
823.26	51.65
823.568	51.39
823.876	51.22
824.184	51.25
824.491	51.34
824.799	51.32
825.107	51.37
825.414	51.63
825.722	51.65
826.029	51.88
826.337	51.89
826.644	52.03
826.951	52.04
827.259	51.81
827.566	51.89
827.873	51.77
828.18	51.73
828.488	51.84
828.795	52.03
829.102	51.74
829.409	51.68
829.716	51.57
830.023	51.63
830.329	51.6
830.636	51.6
830.943	51.3
831.25	51.06
831.557	51.21
831.863	50.51
832.17	50.46
832.476	50.1
832.783	50.12
833.089	50.34
833.396	50.75
833.702	51.21
834.009	50.99
834.315	50.75
834.621	50.35
834.928	50.05
835.234	50.05
835.54	50.1
835.846	49.61
836.152	49.65
836.458	49.98
836.764	49.75
837.07	49.64
837.376	49.75
837.682	50.06
837.988	49.9
838.293	50.15
838.599	49.93
838.905	50.12
839.211	49.7
839.516	49.17
839.822	48.87
840.127	48.22
840.433	48.63
840.738	49.91
841.044	49.65
841.349	50.15
841.654	49.33
841.959	49.15
842.265	49.85
842.57	51.19
842.875	51.05
843.18	52.09
843.485	51.94
843.79	52.28
844.095	51.89
844.4	52.51
844.705	52.03
845.01	51.76
845.315	51.1
845.619	52.09
845.924	51.83
846.229	52.33
846.533	52.4
846.838	51.39
847.142	50.36
847.447	50.42
847.751	50.62
848.056	51.27
848.36	52.93
848.664	52.99
848.969	51.16
849.273	50.17
849.577	50.7
849.881	50.1
850.185	50.11
850.489	50.59
850.794	48.94
851.097	49.57
851.401	50.93
851.705	53.77
852.009	53.07
852.313	52.35
852.617	50.48
852.92	52.49
853.224	52.4
853.528	52.46
853.831	53.37
854.135	51.17
854.438	51.88
854.742	52.65
855.045	51.11
855.349	51.73
855.652	53.04
855.955	53.41
856.259	54.76
856.562	55.47
856.865	56.57
857.168	58.12
857.471	56.31
857.774	55.48
858.077	53.7
858.38	55.16
858.683	56.24
858.986	57.06
859.289	55.86
859.592	57.7
859.894	55.66
860.197	55.96
860.5	56.46
860.802	57.37
861.105	57.06
861.407	58.95
861.71	58.61
862.012	56.76
862.315	54.3
862.617	52.49
862.919	51.95
863.222	50.59
863.524	49.36
863.826	50.55
864.128	50.95
864.43	51.33
864.732	49.41
865.034	47.86
865.336	46.71
865.638	46.35
865.94	43.33
866.242	45.04
866.544	46.41
866.846	47.92
867.147	46.47
867.449	45.03
867.751	43.74
868.052	43.33
868.354	42.32
868.655	45.07
868.957	44.83
869.258	45.73
869.56	44.67
869.861	43.92
870.162	45.04
870.463	45.93
870.765	46.31
871.066	47.57
871.367	48.91
871.668	50.88
871.969	50.82
872.27	54.35
872.571	53.16
872.872	53.74
873.173	49.59
873.473	48.52
873.774	50.74
874.075	50.71
874.376	50.14
874.676	52.55
874.977	51.74
875.277	55.16
875.578	56.51
875.878	58.47
876.179	59.59
876.479	59.2
876.78	58.57
877.08	58.13
877.38	57.91
877.68	58.22
877.981	57.9
878.281	57.77
878.581	58.49
