Data from BA57663_Reflection_00015.txt Node
Date: Mon Nov 18 15:44:19 EST 2019
User: vgr7
Spectrometer: USB2G7710
Scans to average: 3
Trigger mode: 4
Integration Time (sec): 2.000000E-2
Electric dark correction enabled: true
Boxcar width: 10
XAxis mode: Wavelengths
Number of Pixels in Spectrum: 2048
>>>>>Begin Spectral Data<<<<<
177.721	-216.29
178.105	117.34
178.488	152.39
178.871	180.36
179.254	91.64
179.636	179.65
180.019	-24.65
180.402	89.29
180.785	8.55
181.168	47.32
181.55	8.81
181.933	45.05
182.316	42.8
182.698	32.98
183.081	40.63
183.463	55.1
183.846	46.15
184.228	54.87
184.611	77.26
184.993	75.79
185.376	94.42
185.758	63.7
186.14	74.31
186.522	71.76
186.904	81.38
187.287	71.25
187.669	92.23
188.051	93.49
188.433	65.19
188.815	62.67
189.197	32.63
189.579	83
189.961	101.92
190.342	164.49
190.724	2170.42
191.106	1199.38
191.488	383.29
191.869	2533.96
192.251	1267.94
192.633	-1303.67
193.014	-711.07
193.396	689.44
193.777	459.53
194.159	818.03
194.54	724.57
194.922	-1018.34
195.303	-511.29
195.684	-74900
196.065	-23.56
196.447	-85.37
196.828	-127.89
197.209	-114.43
197.59	-145.21
197.971	-103.11
198.352	-75.2
198.733	-504.24
199.114	-871.22
199.495	-315.62
199.876	-277.4
200.257	-130.1
200.638	-48.99
201.018	-13.92
201.399	36.07
201.78	37.93
202.16	36.09
202.541	29.67
202.922	-27.22
203.302	-107.62
203.683	-222.53
204.063	-275.55
204.444	-496.73
204.824	-369.19
205.204	-196.39
205.585	-142.17
205.965	-78.63
206.345	-139.74
206.725	-25.75
207.106	-70.08
207.486	-300.44
207.866	853.3
208.246	380.32
208.626	220.71
209.006	236.2
209.386	237.56
209.766	139.82
210.145	113.24
210.525	195.67
210.905	80.35
211.285	56.29
211.664	276.47
212.044	248.24
212.424	1325.35
212.803	4709.76
213.183	499.48
213.562	367.55
213.942	7534.78
214.321	-792.68
214.701	-404.42
215.08	-500
215.459	-568.02
215.838	-60.66
216.218	-93.05
216.597	-6.36
216.976	-22.97
217.355	-14.45
217.734	-13.78
218.113	4.04
218.492	23.33
218.871	-9.13
219.25	-13.25
219.629	14.29
220.008	22
220.387	12.86
220.766	36.82
221.144	115.76
221.523	127.31
221.902	11.94
222.28	-145.9
222.659	-204.81
223.037	-211.78
223.416	-77.82
223.794	-167.15
224.173	-78.86
224.551	-32.34
224.929	-6.92
225.308	-8.62
225.686	-2.5
226.064	8.68
226.442	3.88
226.821	1.79
227.199	0.5
227.577	1.07
227.955	5.15
228.333	3.95
228.711	0.98
229.089	5.89
229.467	3.21
229.845	6.87
230.222	9.47
230.6	9.49
230.978	8.41
231.356	9.03
231.733	10.61
232.111	10.62
232.488	8.59
232.866	8.65
233.243	9.73
233.621	9.55
233.998	8.91
234.376	7.84
234.753	8.61
235.13	8.26
235.508	8.75
235.885	6.86
236.262	6.23
236.639	7.65
237.016	5.92
237.393	7.65
237.77	6.91
238.147	7.08
238.524	7.09
238.901	7.98
239.278	7.66
239.655	7.42
240.032	6.93
240.409	6.73
240.785	6.57
241.162	6.49
241.539	6.28
241.915	5.87
242.292	5.55
242.668	5.18
243.045	5.73
243.421	5.19
243.798	5.29
244.174	5.18
244.551	5.2
244.927	5.13
245.303	4.93
245.679	4.85
246.056	4.79
246.432	4.57
246.808	4.52
247.184	4.33
247.56	4.24
247.936	4.48
248.312	4.49
248.688	4.44
249.064	4.37
249.44	4.31
249.815	4.13
250.191	4.3
250.567	4.35
250.943	3.89
251.318	3.96
251.694	3.86
252.069	4.01
252.445	3.89
252.82	3.95
253.196	3.79
253.571	3.81
253.947	3.84
254.322	4.14
254.697	3.8
255.073	3.73
255.448	3.84
255.823	3.66
256.198	3.73
256.573	3.45
256.948	3.65
257.323	3.49
257.698	3.71
258.073	3.69
258.448	3.63
258.823	3.75
259.198	3.75
259.573	3.77
259.948	3.79
260.322	3.78
260.697	3.65
261.072	3.7
261.446	3.63
261.821	3.47
262.195	3.4
262.57	3.42
262.944	3.35
263.319	3.27
263.693	3.3
264.067	3.34
264.442	3.58
264.816	3.42
265.19	3.56
265.564	3.67
265.938	3.66
266.313	3.79
266.687	3.76
267.061	3.76
267.435	3.85
267.809	3.78
268.183	3.67
268.556	3.67
268.93	3.68
269.304	3.83
269.678	4.06
270.051	3.94
270.425	3.99
270.799	4.04
271.172	4.14
271.546	4.18
271.919	4.06
272.293	4.11
272.666	4.15
273.04	4.1
273.413	3.93
273.787	4.08
274.16	3.95
274.533	4.08
274.906	4.04
275.279	3.93
275.653	3.92
276.026	3.99
276.399	4.02
276.772	3.9
277.145	3.68
277.518	3.7
277.891	3.87
278.263	3.76
278.636	3.8
279.009	3.79
279.382	3.73
279.755	3.82
280.127	3.76
280.5	3.86
280.872	4.08
281.245	4.05
281.617	3.85
281.99	4.08
282.362	4.04
282.735	4
283.107	4.01
283.479	4.07
283.852	4.15
284.224	4.2
284.596	4.17
284.968	4.3
285.34	4.34
285.713	4.22
286.085	4.29
286.457	4.37
286.829	4.25
287.201	4.42
287.572	4.36
287.944	4.32
288.316	4.28
288.688	4.15
289.06	4.09
289.431	4.24
289.803	4.08
290.175	4.08
290.546	4.22
290.918	4.22
291.289	4.18
291.661	4.13
292.032	4.08
292.403	4.09
292.775	4.1
293.146	3.89
293.517	4
293.889	4.11
294.26	4.05
294.631	4.15
295.002	3.89
295.373	3.91
295.744	4.05
296.115	4.04
296.486	4.03
296.857	4.09
297.228	4.22
297.599	4.23
297.97	4.19
298.34	4.13
298.711	4.24
299.082	4.25
299.452	4.2
299.823	4.29
300.194	4.39
300.564	4.29
300.935	4.39
301.305	4.32
301.676	4.29
302.046	4.32
302.416	4.49
302.787	4.67
303.157	4.83
303.527	4.66
303.897	4.72
304.267	4.88
304.637	5.09
305.008	5.08
305.378	5.19
305.748	5.22
306.117	5.27
306.487	5.32
306.857	5.49
307.227	5.67
307.597	5.71
307.967	5.87
308.336	6.07
308.706	6.24
309.076	6.51
309.445	6.54
309.815	6.59
310.184	6.49
310.554	6.63
310.923	6.6
311.293	6.68
311.662	6.72
312.031	6.71
312.401	6.64
312.77	6.73
313.139	6.92
313.508	6.94
313.877	7.03
314.246	7.08
314.616	7.03
314.985	7.19
315.353	7.33
315.722	7.4
316.091	7.44
316.46	7.35
316.829	7.35
317.198	7.58
317.567	7.69
317.935	7.89
318.304	7.84
318.672	7.89
319.041	8.11
319.41	8.12
319.778	8.24
320.147	8.32
320.515	8.18
320.883	8.15
321.252	8.38
321.62	8.61
321.988	8.7
322.357	8.76
322.725	8.72
323.093	8.66
323.461	8.61
323.829	8.61
324.197	8.79
324.565	8.72
324.933	8.74
325.301	8.74
325.669	8.81
326.037	8.84
326.405	8.84
326.772	8.85
327.14	8.95
327.508	8.81
327.875	8.79
328.243	8.97
328.61	9.01
328.978	9.02
329.346	8.96
329.713	9.06
330.08	9.09
330.448	9.11
330.815	9.08
331.182	9.11
331.55	9.37
331.917	9.26
332.284	9.45
332.651	9.43
333.018	9.44
333.385	9.39
333.752	9.49
334.119	9.65
334.486	9.65
334.853	9.65
335.22	9.79
335.587	10
335.954	9.91
336.32	9.91
336.687	9.92
337.054	9.92
337.42	9.83
337.787	9.97
338.153	9.93
338.52	10.03
338.886	10.13
339.253	10.01
339.619	10.14
339.986	10.12
340.352	10.16
340.718	10.25
341.084	10.21
341.451	10.22
341.817	10.29
342.183	10.27
342.549	10.32
342.915	10.56
343.281	10.48
343.647	10.45
344.013	10.58
344.379	10.56
344.745	10.58
345.11	10.67
345.476	10.66
345.842	10.8
346.208	10.82
346.573	10.84
346.939	10.94
347.304	10.92
347.67	10.95
348.035	10.92
348.401	10.86
348.766	10.93
349.132	10.9
349.497	10.86
349.862	10.98
350.228	10.9
350.593	10.73
350.958	10.77
351.323	10.9
351.688	10.86
352.053	10.92
352.418	10.93
352.783	10.91
353.148	10.9
353.513	10.85
353.878	10.87
354.243	10.9
354.608	10.88
354.972	10.89
355.337	10.9
355.702	10.94
356.066	10.99
356.431	10.95
356.795	11.02
357.16	10.95
357.524	10.83
357.889	10.82
358.253	10.85
358.618	10.8
358.982	10.68
359.346	10.61
359.71	10.55
360.075	10.62
360.439	10.64
360.803	10.61
361.167	10.61
361.531	10.47
361.895	10.41
362.259	10.35
362.623	10.32
362.987	10.22
363.351	10.18
363.714	10.16
364.078	10.13
364.442	10
364.806	10.03
365.169	10.05
365.533	10.03
365.896	10.03
366.26	10
366.623	10.01
366.987	10
367.35	9.98
367.714	9.86
368.077	9.81
368.44	9.77
368.803	9.71
369.167	9.65
369.53	9.54
369.893	9.52
370.256	9.5
370.619	9.52
370.982	9.45
371.345	9.37
371.708	9.34
372.071	9.26
372.434	9.11
372.797	9.03
373.159	8.95
373.522	8.85
373.885	8.8
374.247	8.72
374.61	8.72
374.973	8.61
375.335	8.56
375.698	8.48
376.06	8.41
376.423	8.3
376.785	8.37
377.147	8.39
377.51	8.3
377.872	8.26
378.234	8.18
378.596	8.09
378.958	8.03
379.321	8.05
379.683	8.05
380.045	8.04
380.407	8.03
380.769	7.94
381.13	7.85
381.492	7.81
381.854	7.71
382.216	7.62
382.578	7.59
382.939	7.52
383.301	7.41
383.663	7.32
384.024	7.3
384.386	7.26
384.747	7.18
385.109	7.17
385.47	7.04
385.832	7
386.193	7
386.554	6.94
386.916	6.81
387.277	6.78
387.638	6.72
387.999	6.64
388.36	6.62
388.721	6.63
389.082	6.59
389.443	6.57
389.804	6.5
390.165	6.46
390.526	6.39
390.887	6.4
391.248	6.44
391.609	6.42
391.969	6.39
392.33	6.33
392.691	6.26
393.051	6.26
393.412	6.23
393.772	6.18
394.133	6.11
394.493	6.07
394.854	6.01
395.214	6
395.574	5.95
395.935	5.91
396.295	5.86
396.655	5.78
397.015	5.73
397.376	5.73
397.736	5.66
398.096	5.68
398.456	5.61
398.816	5.53
399.176	5.47
399.535	5.38
399.895	5.36
400.255	5.36
400.615	5.29
400.975	5.23
401.334	5.19
401.694	5.2
402.054	5.21
402.413	5.2
402.773	5.15
403.132	5.14
403.492	5.1
403.851	5.06
404.211	5.09
404.57	5.07
404.929	5.05
405.288	5.05
405.648	5.01
406.007	4.98
406.366	4.96
406.725	4.93
407.084	4.96
407.443	4.95
407.802	4.94
408.161	4.91
408.52	4.9
408.879	4.88
409.238	4.87
409.596	4.82
409.955	4.76
410.314	4.74
410.673	4.7
411.031	4.71
411.39	4.7
411.748	4.66
412.107	4.68
412.465	4.64
412.824	4.61
413.182	4.57
413.54	4.55
413.899	4.53
414.257	4.52
414.615	4.47
414.974	4.44
415.332	4.4
415.69	4.4
416.048	4.36
416.406	4.33
416.764	4.3
417.122	4.3
417.48	4.3
417.838	4.28
418.195	4.28
418.553	4.26
418.911	4.23
419.269	4.25
419.626	4.22
419.984	4.19
420.342	4.18
420.699	4.15
421.057	4.15
421.414	4.14
421.772	4.11
422.129	4.1
422.486	4.09
422.844	4.08
423.201	4.06
423.558	4.05
423.915	4.04
424.273	4.03
424.63	4.02
424.987	4
425.344	3.98
425.701	3.97
426.058	3.96
426.415	3.95
426.772	3.91
427.128	3.9
427.485	3.89
427.842	3.89
428.199	3.91
428.555	3.88
428.912	3.89
429.269	3.91
429.625	3.9
429.982	3.88
430.338	3.87
430.695	3.89
431.051	3.88
431.407	3.87
431.764	3.86
432.12	3.84
432.476	3.84
432.832	3.84
433.189	3.85
433.545	3.84
433.901	3.83
434.257	3.81
434.613	3.82
434.969	3.83
435.325	3.82
435.681	3.82
436.036	3.84
436.392	3.84
436.748	3.81
437.104	3.81
437.459	3.8
437.815	3.79
438.171	3.78
438.526	3.8
438.882	3.82
439.237	3.82
439.593	3.83
439.948	3.81
440.304	3.81
440.659	3.79
441.014	3.79
441.369	3.79
441.725	3.78
442.08	3.77
442.435	3.77
442.79	3.76
443.145	3.75
443.5	3.74
443.855	3.71
444.21	3.7
444.565	3.69
444.92	3.7
445.275	3.69
445.629	3.67
445.984	3.64
446.339	3.62
446.693	3.6
447.048	3.59
447.403	3.59
447.757	3.58
448.112	3.58
448.466	3.57
448.82	3.56
449.175	3.57
449.529	3.55
449.883	3.54
450.238	3.52
450.592	3.51
450.946	3.49
451.3	3.5
451.654	3.5
452.008	3.49
452.362	3.47
452.716	3.48
453.07	3.5
453.424	3.51
453.778	3.51
454.132	3.52
454.486	3.51
454.839	3.5
455.193	3.5
455.547	3.49
455.9	3.51
456.254	3.52
456.607	3.5
456.961	3.5
457.314	3.49
457.668	3.51
458.021	3.51
458.375	3.52
458.728	3.52
459.081	3.53
459.434	3.53
459.787	3.53
460.141	3.52
460.494	3.51
460.847	3.52
461.2	3.52
461.553	3.53
461.906	3.55
462.259	3.58
462.611	3.6
462.964	3.6
463.317	3.61
463.67	3.62
464.022	3.64
464.375	3.65
464.728	3.67
465.08	3.68
465.433	3.7
465.785	3.72
466.138	3.73
466.49	3.74
466.843	3.74
467.195	3.77
467.547	3.78
467.899	3.77
468.252	3.77
468.604	3.78
468.956	3.78
469.308	3.78
469.66	3.77
470.012	3.76
470.364	3.77
470.716	3.78
471.068	3.78
471.42	3.78
471.772	3.79
472.123	3.8
472.475	3.79
472.827	3.8
473.178	3.8
473.53	3.78
473.882	3.78
474.233	3.79
474.585	3.78
474.936	3.78
475.288	3.78
475.639	3.77
475.99	3.76
476.342	3.75
476.693	3.76
477.044	3.76
477.395	3.75
477.746	3.73
478.097	3.7
478.448	3.7
478.8	3.7
479.15	3.68
479.501	3.67
479.852	3.68
480.203	3.69
480.554	3.68
480.905	3.68
481.255	3.68
481.606	3.7
481.957	3.71
482.307	3.72
482.658	3.72
483.009	3.73
483.359	3.73
483.709	3.74
484.06	3.74
484.41	3.74
484.761	3.75
485.111	3.75
485.461	3.77
485.811	3.78
486.162	3.78
486.512	3.78
486.862	3.8
487.212	3.8
487.562	3.8
487.912	3.8
488.262	3.8
488.612	3.81
488.961	3.81
489.311	3.82
489.661	3.82
490.011	3.83
490.36	3.83
490.71	3.84
491.06	3.84
491.409	3.86
491.759	3.87
492.108	3.88
492.458	3.9
492.807	3.89
493.157	3.9
493.506	3.93
493.855	3.95
494.204	3.95
494.554	3.96
494.903	3.99
495.252	4.01
495.601	4.06
495.95	4.09
496.299	4.09
496.648	4.1
496.997	4.13
497.346	4.18
497.695	4.22
498.043	4.25
498.392	4.28
498.741	4.31
499.09	4.32
499.438	4.36
499.787	4.39
500.135	4.45
500.484	4.48
500.832	4.52
501.181	4.56
501.529	4.6
501.878	4.68
502.226	4.73
502.574	4.76
502.923	4.77
503.271	4.83
503.619	4.92
503.967	4.96
504.315	5.03
504.663	5.06
505.011	5.11
505.359	5.15
505.707	5.21
506.055	5.27
506.403	5.36
506.751	5.41
507.098	5.47
507.446	5.52
507.794	5.59
508.141	5.64
508.489	5.72
508.837	5.79
509.184	5.83
509.531	5.9
509.879	5.98
510.226	6.06
510.574	6.13
510.921	6.19
511.268	6.28
511.616	6.34
511.963	6.44
512.31	6.52
512.657	6.62
513.004	6.7
513.351	6.81
513.698	6.87
514.045	6.97
514.392	7.06
514.739	7.16
515.086	7.26
515.432	7.37
515.779	7.45
516.126	7.56
516.473	7.67
516.819	7.78
517.166	7.87
517.512	7.95
517.859	8.04
518.205	8.13
518.552	8.2
518.898	8.28
519.245	8.35
519.591	8.44
519.937	8.53
520.283	8.63
520.629	8.72
520.976	8.83
521.322	8.95
521.668	9.07
522.014	9.19
522.36	9.32
522.706	9.42
523.052	9.6
523.398	9.77
523.743	9.96
524.089	10.15
524.435	10.32
524.781	10.51
525.126	10.69
525.472	10.84
525.817	10.98
526.163	11.12
526.509	11.26
526.854	11.37
527.199	11.5
527.545	11.62
527.89	11.76
528.235	11.9
528.581	12.03
528.926	12.15
529.271	12.28
529.616	12.4
529.961	12.56
530.306	12.69
530.651	12.81
530.996	12.93
531.341	13.07
531.686	13.24
532.031	13.4
532.376	13.55
532.721	13.74
533.065	13.91
533.41	14.11
533.755	14.31
534.099	14.53
534.444	14.71
534.788	14.91
535.133	15.09
535.477	15.29
535.822	15.49
536.166	15.73
536.51	16
536.855	16.28
537.199	16.55
537.543	16.81
537.887	17.12
538.231	17.42
538.576	17.71
538.92	18
539.264	18.26
539.608	18.53
539.951	18.79
540.295	19.04
540.639	19.27
540.983	19.49
541.327	19.73
541.671	19.98
542.014	20.19
542.358	20.4
542.701	20.63
543.045	20.88
543.389	21.09
543.732	21.31
544.075	21.55
544.419	21.78
544.762	22.04
545.105	22.31
545.449	22.55
545.792	22.81
546.135	23.11
546.478	23.42
546.821	23.74
547.165	24.02
547.508	24.33
547.851	24.67
548.194	24.98
548.536	25.26
548.879	25.57
549.222	25.92
549.565	26.25
549.908	26.58
550.25	26.89
550.593	27.26
550.936	27.59
551.278	27.93
551.621	28.28
551.963	28.62
552.306	28.95
552.648	29.29
552.991	29.6
553.333	29.89
553.675	30.16
554.017	30.47
554.36	30.78
554.702	31.08
555.044	31.33
555.386	31.62
555.728	31.93
556.07	32.24
556.412	32.52
556.754	32.78
557.096	33.04
557.438	33.32
557.78	33.57
558.121	33.92
558.463	34.2
558.805	34.46
559.147	34.72
559.488	34.93
559.83	35.18
560.171	35.48
560.513	35.72
560.854	35.94
561.196	36.15
561.537	36.38
561.878	36.62
562.22	36.91
562.561	37.15
562.902	37.35
563.243	37.54
563.584	37.73
563.925	37.97
564.266	38.23
564.607	38.39
564.948	38.6
565.289	38.67
565.63	38.85
565.971	39
566.312	39.19
566.653	39.35
566.993	39.51
567.334	39.65
567.675	39.83
568.015	40.06
568.356	40.2
568.696	40.37
569.037	40.55
569.377	40.68
569.718	40.84
570.058	41.02
570.398	41.13
570.739	41.35
571.079	41.53
571.419	41.59
571.759	41.75
572.099	41.87
572.439	42.07
572.779	42.17
573.119	42.29
573.459	42.43
573.799	42.63
574.139	42.78
574.479	42.91
574.819	43.02
575.158	43.12
575.498	43.3
575.838	43.42
576.177	43.55
576.517	43.7
576.856	43.86
577.196	43.98
577.535	44.16
577.875	44.32
578.214	44.39
578.553	44.61
578.893	44.8
579.232	44.98
579.571	45.09
579.91	45.31
580.25	45.49
580.589	45.62
580.928	45.73
581.267	45.89
581.606	46.01
581.945	46.11
582.283	46.22
582.622	46.31
582.961	46.38
583.3	46.49
583.639	46.57
583.977	46.63
584.316	46.72
584.654	46.87
584.993	46.95
585.332	47.06
585.67	47.17
586.008	47.25
586.347	47.31
586.685	47.38
587.024	47.44
587.362	47.56
587.7	47.61
588.038	47.68
588.376	47.73
588.715	47.79
589.053	47.91
589.391	47.99
589.729	48.09
590.067	48.21
590.404	48.25
590.742	48.3
591.08	48.37
591.418	48.39
591.756	48.36
592.093	48.33
592.431	48.41
592.769	48.43
593.106	48.48
593.444	48.48
593.781	48.49
594.119	48.52
594.456	48.42
594.793	48.41
595.131	48.41
595.468	48.42
595.805	48.5
596.143	48.47
596.48	48.56
596.817	48.66
597.154	48.69
597.491	48.78
597.828	48.77
598.165	48.8
598.502	48.89
598.839	48.95
599.176	49.07
599.512	49.04
599.849	49.02
600.186	49.01
600.523	49.1
600.859	49.23
601.196	49.24
601.532	49.28
601.869	49.28
602.205	49.33
602.542	49.37
602.878	49.39
603.215	49.46
603.551	49.43
603.887	49.46
604.223	49.46
604.56	49.49
604.896	49.59
605.232	49.61
605.568	49.58
605.904	49.67
606.24	49.68
606.576	49.72
606.912	49.86
607.248	49.89
607.583	49.91
607.919	49.9
608.255	50.01
608.591	50.12
608.926	50.2
609.262	50.28
609.597	50.35
609.933	50.4
610.268	50.47
610.604	50.54
610.939	50.51
611.275	50.59
611.61	50.65
611.945	50.68
612.281	50.69
612.616	50.82
612.951	50.85
613.286	50.92
613.621	51.04
613.956	51.04
614.291	51.17
614.626	51.28
614.961	51.36
615.296	51.33
615.631	51.37
615.966	51.43
616.3	51.54
616.635	51.61
616.97	51.57
617.304	51.52
617.639	51.54
617.973	51.55
618.308	51.6
618.642	51.65
618.977	51.76
619.311	51.83
619.646	51.88
619.98	51.88
620.314	51.89
620.648	51.97
620.983	51.94
621.317	51.99
621.651	51.94
621.985	52.01
622.319	52.01
622.653	52.06
622.987	52.14
623.321	52.06
623.655	51.98
623.988	51.98
624.322	51.95
624.656	51.9
624.99	51.92
625.323	51.89
625.657	51.8
625.99	51.71
626.324	51.77
626.657	51.79
626.991	51.87
627.324	51.93
627.658	51.83
627.991	51.89
628.324	51.86
628.657	51.91
628.991	51.84
629.324	51.92
629.657	51.83
629.99	51.77
630.323	51.73
630.656	51.77
630.989	51.83
631.322	51.92
631.655	51.96
631.987	51.93
632.32	52
632.653	52.02
632.986	52.07
633.318	52.1
633.651	52.05
633.984	51.95
634.316	51.87
634.649	51.93
634.981	51.98
635.313	51.88
635.646	51.93
635.978	51.94
636.31	51.98
636.643	52.05
636.975	52.19
637.307	52.32
637.639	52.32
637.971	52.37
638.303	52.5
638.635	52.52
638.967	52.6
639.299	52.55
639.631	52.58
639.963	52.59
640.295	52.62
640.626	52.68
640.958	52.77
641.29	52.81
641.621	52.76
641.953	52.76
642.285	52.91
642.616	52.85
642.948	53.06
643.279	53.02
643.61	53.07
643.942	53.13
644.273	53.08
644.604	53.1
644.936	53.11
645.267	52.96
645.598	53.03
645.929	53.04
646.26	53.08
646.591	53.15
646.922	53.11
647.253	53.14
647.584	53.03
647.915	53.04
648.245	53.16
648.576	53.3
648.907	53.17
649.238	53.17
649.568	53.14
649.899	52.99
650.229	52.96
650.56	52.97
650.89	52.88
651.221	52.86
651.551	52.88
651.882	52.95
652.212	53.02
652.542	52.99
652.872	53.01
653.203	53.02
653.533	53.01
653.863	53.12
654.193	53.01
654.523	53.2
654.853	53.13
655.183	52.95
655.513	52.92
655.843	53.08
656.172	53.05
656.502	53.03
656.832	52.96
657.162	52.97
657.491	53.03
657.821	52.97
658.15	53.02
658.48	53.11
658.809	53.13
659.139	53.24
659.468	53.18
659.798	53.2
660.127	53.2
660.456	53.16
660.785	53.14
661.115	53.13
661.444	53.04
661.773	53.09
662.102	53.13
662.431	53.04
662.76	52.97
663.089	52.92
663.418	53.03
663.747	53.07
664.076	53.1
664.404	53.17
664.733	53.35
665.062	53.43
665.39	53.29
665.719	53.19
666.048	53.1
666.376	53.28
666.705	53.4
667.033	53.38
667.362	53.37
667.69	53.38
668.018	53.42
668.347	53.37
668.675	53.5
669.003	53.63
669.331	53.7
669.659	53.72
669.987	53.82
670.315	53.81
670.643	53.96
670.971	53.88
671.299	53.84
671.627	53.76
671.955	53.58
672.283	53.63
672.61	53.64
672.938	53.57
673.266	53.57
673.593	53.42
673.921	53.4
674.249	53.36
674.576	53.23
674.904	53.29
675.231	53.3
675.558	53.23
675.886	53.2
676.213	53.27
676.54	53.33
676.867	53.34
677.195	53.31
677.522	53.26
677.849	53.28
678.176	53.21
678.503	53.01
678.83	53.11
679.157	53.12
679.484	53.12
679.81	53.17
680.137	53.15
680.464	53.22
680.791	53.23
681.117	53.1
681.444	53.22
681.771	53.24
682.097	53.34
682.424	53.41
682.75	53.35
683.077	53.31
683.403	53.28
683.729	53.12
684.056	53.15
684.382	53.17
684.708	53.18
685.034	53.25
685.36	53.57
685.686	53.51
686.012	53.55
686.339	53.54
686.664	53.58
686.99	53.48
687.316	53.34
687.642	53.3
687.968	53.34
688.294	53.35
688.619	53.31
688.945	53.15
689.271	52.99
689.596	52.98
689.922	53.01
690.247	52.9
690.573	53.03
690.898	52.98
691.224	52.9
691.549	52.88
691.874	52.72
692.2	52.66
692.525	52.75
692.85	52.77
693.175	52.78
693.5	52.79
693.825	52.83
694.15	52.86
694.475	52.99
694.8	53.29
695.125	53.07
695.45	53.09
695.775	53.19
696.099	53.12
696.424	53.32
696.749	53.23
697.073	53.32
697.398	53.34
697.723	53.4
698.047	53.5
698.372	53.6
698.696	53.6
699.02	53.5
699.345	53.43
699.669	53.44
699.993	53.39
700.318	53.34
700.642	53.28
700.966	53.36
701.29	53.34
701.614	53.3
701.938	53.6
702.262	53.65
702.586	53.52
702.91	53.55
703.234	53.47
703.557	53.58
703.881	53.56
704.205	53.63
704.529	53.58
704.852	53.53
705.176	53.39
705.499	53.49
705.823	53.55
706.146	53.68
706.47	53.6
706.793	53.79
707.117	53.76
707.44	53.83
707.763	53.78
708.086	53.79
708.409	53.67
708.733	53.54
709.056	53.54
709.379	53.85
709.702	54.09
710.025	53.97
710.348	53.77
710.671	53.86
710.993	53.75
711.316	53.69
711.639	53.69
711.962	53.63
712.284	53.7
712.607	53.81
712.93	53.81
713.252	53.78
713.575	53.61
713.897	53.6
714.22	53.71
714.542	53.77
714.864	53.61
715.187	53.74
715.509	53.6
715.831	53.59
716.153	53.33
716.475	53.35
716.798	53.36
717.12	53.54
717.442	53.5
717.764	53.53
718.085	53.61
718.407	53.51
718.729	53.66
719.051	53.48
719.373	53.26
719.695	53.19
720.016	53.27
720.338	53.21
720.659	53.2
720.981	52.97
721.302	53.02
721.624	53.23
721.945	53.1
722.267	53.26
722.588	53.03
722.909	53.16
723.231	52.95
723.552	52.99
723.873	52.81
724.194	52.79
724.515	52.85
724.836	52.93
725.157	52.95
725.478	52.84
725.799	52.91
726.12	52.97
726.441	52.98
726.762	53.06
727.083	53.48
727.403	53.64
727.724	53.68
728.045	53.32
728.365	53.29
728.686	53.23
729.006	53.18
729.327	53.05
729.647	53.13
729.967	53.13
730.288	53.17
730.608	53.38
730.928	53.41
731.249	53.42
731.569	53.49
731.889	53.37
732.209	53.34
732.529	53.26
732.849	53.15
733.169	52.89
733.489	52.69
733.809	52.45
734.129	52.41
734.448	52.63
734.768	53.08
735.088	53.03
735.408	53.19
735.727	53.1
736.047	53.54
736.366	53.46
736.686	53.54
737.005	53.56
737.325	53.43
737.644	53.53
737.963	53.51
738.283	53.4
738.602	53.5
738.921	53.65
739.24	53.91
739.56	54.33
739.879	54.67
740.198	54.79
740.517	54.85
740.836	54.64
741.155	54.58
741.473	54.44
741.792	54.67
742.111	54.72
742.43	54.85
742.748	54.76
743.067	54.69
743.386	54.7
743.704	54.7
744.023	54.95
744.341	54.88
744.66	54.67
744.978	54.5
745.297	54.62
745.615	54.66
745.933	54.55
746.252	54.31
746.57	54.36
746.888	54.49
747.206	54.62
747.524	54.6
747.842	54.53
748.16	54.5
748.478	54.27
748.796	54.03
749.114	54.15
749.432	53.88
749.749	53.95
750.067	53.75
750.385	53.83
750.703	53.67
751.02	53.58
751.338	53.78
751.655	53.94
751.973	53.89
752.29	53.75
752.608	53.83
752.925	53.65
753.242	53.55
753.56	53.35
753.877	53.19
754.194	53.12
754.511	53.18
754.828	53.16
755.145	53.02
755.462	53.16
755.779	53.06
756.096	53.2
756.413	53.76
756.73	53.79
757.047	53.49
757.364	53.34
757.68	53.33
757.997	53.47
758.314	53.44
758.63	53.34
758.947	53.13
759.264	52.9
759.58	53.16
759.896	53.2
760.213	53.34
760.529	53.1
760.846	53.43
761.162	53.18
761.478	53.12
761.794	53.12
762.11	52.82
762.426	52.8
762.743	52.86
763.059	52.45
763.375	52.43
763.69	52.65
764.006	52.74
764.322	52.66
764.638	52.6
764.954	52.67
765.27	52.78
765.585	52.86
765.901	53.13
766.216	53.27
766.532	53.16
766.848	53.23
767.163	53.4
767.478	53.2
767.794	53.45
768.109	53.48
768.424	53.4
768.74	53.81
769.055	53.81
769.37	53.98
769.685	54.19
770	54.32
770.315	54.22
770.63	54.18
770.945	54.55
771.26	54.15
771.575	54.23
771.89	54.33
772.205	54.62
772.52	54.42
772.834	53.99
773.149	54.2
773.464	53.87
773.778	54.19
774.093	54.46
774.407	54.16
774.722	54.22
775.036	54.62
775.351	54.68
775.665	54.46
775.979	53.96
776.293	53.75
776.608	53.63
776.922	53.98
777.236	54.12
777.55	54.18
777.864	54.81
778.178	54.51
778.492	54.37
778.806	54.27
779.12	54.17
779.434	54.54
779.747	54.81
780.061	55.01
780.375	54.86
780.689	54.51
781.002	54.32
781.316	54.33
781.629	54.62
781.943	54.21
782.256	54.56
782.57	55.03
782.883	55.26
783.196	55.5
783.51	54.99
783.823	55.31
784.136	54.97
784.449	54.52
784.762	54.83
785.075	54.65
785.388	54.59
785.701	54.88
786.014	54.56
786.327	54.14
786.64	54.33
786.953	54.39
787.266	54.52
787.578	54.81
787.891	54.77
788.204	54.17
788.516	54.57
788.829	54.56
789.141	54.36
789.454	53.76
789.766	53.53
790.079	53.22
790.391	53.05
790.703	53.17
791.016	53.84
791.328	53.76
791.64	54.07
791.952	53.8
792.264	53.27
792.576	53.14
792.888	53.19
793.2	53.3
793.512	52.98
793.824	52.98
794.136	53.35
794.448	53.23
794.76	53.77
795.071	53.73
795.383	54.04
795.695	53.97
796.006	54.1
796.318	54.41
796.629	54.73
796.941	54.54
797.252	54.87
797.564	53.87
797.875	53.56
798.186	53.48
798.497	54.36
798.809	54.94
799.12	54.96
799.431	55
799.742	54.62
800.053	54.76
800.364	54.64
800.675	54.54
800.986	54.63
801.297	53.81
801.608	53.12
801.918	53.03
802.229	52.89
802.54	52.92
802.851	52.61
803.161	52.83
803.472	52.87
803.782	52.41
804.093	52.91
804.403	52.65
804.714	52.39
805.024	51.64
805.334	51.53
805.645	51.09
805.955	51.98
806.265	51.34
806.575	50.68
806.885	50.74
807.195	50.59
807.505	50.76
807.815	50.85
808.125	50.86
808.435	51.07
808.745	50.82
809.055	50.49
809.365	50.89
809.674	50.28
809.984	49.64
810.294	49.93
810.603	49.89
810.913	50.29
811.222	50.76
811.532	50.86
811.841	50.44
812.151	51.5
812.46	50.06
812.769	51.08
813.079	51.42
813.388	50.67
813.697	50.82
814.006	49.96
814.315	50.55
814.624	50.77
814.933	49.76
815.242	50.17
815.551	50.82
815.86	50.44
816.169	50.22
816.478	50.65
816.786	49.89
817.095	50.31
817.404	50.96
817.712	50.7
818.021	51.38
818.33	51.3
818.638	51.02
818.947	51.42
819.255	51.2
819.563	50.64
819.872	51.14
820.18	50.96
820.488	51.55
820.796	51.84
821.105	52.06
821.413	52.28
821.721	52.17
822.029	52.15
822.337	52.07
822.645	52.25
822.953	52.38
823.26	52.53
823.568	52.11
823.876	52.06
824.184	51.86
824.491	51.76
824.799	51.79
825.107	51.73
825.414	51.8
825.722	51.84
826.029	52.29
826.337	52.4
826.644	52.57
826.951	52.59
827.259	52.48
827.566	52.56
827.873	52.55
828.18	52.85
828.488	52.84
828.795	53.02
829.102	53.05
829.409	52.94
829.716	52.82
830.023	53.41
830.329	53.07
830.636	53.43
830.943	53.27
831.25	53.31
831.557	53.39
831.863	53.12
832.17	52.81
832.476	52.32
832.783	52.31
833.089	51.82
833.396	51.39
833.702	51.23
834.009	50.87
834.315	50.89
834.621	50.38
834.928	50.49
835.234	50.48
835.54	50.24
835.846	50.2
836.152	50.17
836.458	50.63
836.764	50.96
837.07	50.69
837.376	50.76
837.682	50.33
837.988	50.46
838.293	50.46
838.599	50.66
838.905	51.35
839.211	50.71
839.516	50.98
839.822	50.98
840.127	51.02
840.433	51.19
840.738	51.08
841.044	51.17
841.349	51.29
841.654	51.6
841.959	52.46
842.265	52.73
842.57	53.47
842.875	52.37
843.18	53.06
843.485	53.87
843.79	54.66
844.095	55.1
844.4	55.42
844.705	55.44
845.01	56.5
845.315	55.59
845.619	56.14
845.924	57.43
846.229	56.28
846.533	56.47
846.838	55.73
847.142	54.89
847.447	54.6
847.751	52.83
848.056	50.6
848.36	50.18
848.664	49.04
848.969	47.69
849.273	47.78
849.577	46.27
849.881	46.84
850.185	45.52
850.489	46.48
850.794	46.83
851.097	48.09
851.401	46.11
851.705	45.5
852.009	46.53
852.313	45.58
852.617	46.59
852.92	46.36
853.224	46.31
853.528	47.99
853.831	50.35
854.135	51.36
854.438	53.13
854.742	53.88
855.045	56.08
855.349	57.49
855.652	58.79
855.955	60.13
856.259	57
856.562	56.4
856.865	54.87
857.168	53.27
857.471	52.58
857.774	55.03
858.077	56.95
858.38	57.37
858.683	57.43
858.986	55.72
859.289	54.89
859.592	53.21
859.894	52.36
860.197	50.16
860.5	52.45
860.802	53.86
861.105	53.19
861.407	52.55
861.71	54.17
862.012	54.62
862.315	53.11
862.617	54.89
862.919	56.5
863.222	58.27
863.524	58.7
863.826	57.36
864.128	53.68
864.43	52.31
864.732	50.23
865.034	51.13
865.336	51.38
865.638	52.29
865.94	54.75
866.242	52.61
866.544	53.69
866.846	53.33
867.147	50.66
867.449	50.11
867.751	48.88
868.052	47.89
868.354	46.49
868.655	46.85
868.957	47.61
869.258	46.84
869.56	46.38
869.861	45.05
870.162	45.05
870.463	48.4
870.765	46.74
871.066	51.14
871.367	47.44
871.668	50.82
871.969	49.18
872.27	49.28
872.571	52.16
872.872	52.91
873.173	51.86
873.473	55.26
873.774	56.97
874.075	58.44
874.376	54.81
874.676	55.98
874.977	56.34
875.277	55.68
875.578	54.88
875.878	55.2
876.179	56.11
876.479	57.16
876.78	56.53
877.08	58.96
877.38	54.85
877.68	59.15
877.981	57.04
878.281	59.3
878.581	60.67
