Data from BA57715_Reflection_00008.txt Node
Date: Mon Nov 18 15:26:01 EST 2019
User: vgr7
Spectrometer: USB2G7710
Scans to average: 3
Trigger mode: 4
Integration Time (sec): 2.000000E-2
Electric dark correction enabled: true
Boxcar width: 10
XAxis mode: Wavelengths
Number of Pixels in Spectrum: 2048
>>>>>Begin Spectral Data<<<<<
177.721	-1.85
178.105	10.05
178.488	36.86
178.871	95.59
179.254	230.84
179.636	97.79
180.019	255.69
180.402	91.67
180.785	-148.8
181.168	242.86
181.55	179.21
181.933	91.01
182.316	53.1
182.698	96.74
183.081	192.75
183.463	387.29
183.846	216.5
184.228	1112.05
184.611	375.56
184.993	-2418.52
185.376	-333.86
185.758	-466.37
186.14	-259.28
186.522	-282.51
186.904	302.02
187.287	77.96
187.669	-478.31
188.051	2957.14
188.433	853.62
188.815	830.16
189.197	-365.12
189.579	-163.83
189.961	-430.61
190.342	-190.73
190.724	-75.91
191.106	-81.02
191.488	-55.01
191.869	-38.43
192.251	-7.36
192.633	0.47
193.014	-16.55
193.396	-106.01
193.777	-69.49
194.159	473.33
194.54	-158.37
194.922	-86.88
195.303	-81.11
195.684	-142.07
196.065	-80.93
196.447	-125.99
196.828	-161.24
197.209	-115.17
197.59	-238.28
197.971	-150.43
198.352	-120.61
198.733	-127.01
199.114	-129.78
199.495	-178.56
199.876	-112.09
200.257	-102.46
200.638	-91.47
201.018	-117.03
201.399	-114.07
201.78	-104.26
202.16	-110.53
202.541	-116.89
202.922	-147.57
203.302	-260.9
203.683	-152.32
204.063	-168.4
204.444	-151.47
204.824	-122.22
205.204	-140.86
205.585	-84.42
205.965	-60
206.345	-61.03
206.725	-64.38
207.106	-139.07
207.486	-201.16
207.866	-1507.84
208.246	791.36
208.626	-1687.23
209.006	-171.19
209.386	-201.54
209.766	-155.32
210.145	-77.51
210.525	-111.08
210.905	-59.06
211.285	-39.89
211.664	-12.54
212.044	-15.03
212.424	-28.18
212.803	-42.45
213.183	-32.2
213.562	-37.27
213.942	-14.14
214.321	-8.5
214.701	-15.48
215.08	-1.2
215.459	-9.5
215.838	3.86
216.218	-2.51
216.597	-1.92
216.976	-4.55
217.355	-0.22
217.734	-0.56
218.113	-0.85
218.492	9.47
218.871	4.6
219.25	12.29
219.629	10.15
220.008	10.38
220.387	20.15
220.766	24.34
221.144	14.58
221.523	4.5
221.902	2.13
222.28	4.04
222.659	7.55
223.037	7.75
223.416	18.47
223.794	5.96
224.173	1.57
224.551	13.73
224.929	11.39
225.308	20.7
225.686	10.81
226.064	13.04
226.442	6.86
226.821	6.69
227.199	2.21
227.577	1.77
227.955	-5.32
228.333	-7.39
228.711	-3.59
229.089	-2.73
229.467	-2.76
229.845	-4.67
230.222	-4.98
230.6	-4.08
230.978	-3.37
231.356	-2.33
231.733	-0.5
232.111	1.12
232.488	1.55
232.866	2.2
233.243	1.11
233.621	1.39
233.998	0.28
234.376	-0.24
234.753	-0.11
235.13	-0.76
235.508	0.06
235.885	3.1
236.262	2.79
236.639	0.83
237.016	1.75
237.393	4.68
237.77	4.1
238.147	4.77
238.524	4.26
238.901	4.07
239.278	3.34
239.655	3.98
240.032	4.05
240.409	3.16
240.785	3.38
241.162	3.52
241.539	4.02
241.915	4.08
242.292	3.91
242.668	4.33
243.045	4.56
243.421	4.14
243.798	3.89
244.174	3.82
244.551	4.02
244.927	3.89
245.303	3.69
245.679	4.11
246.056	3.85
246.432	4.03
246.808	4.06
247.184	4.13
247.56	3.69
247.936	3.3
248.312	3.28
248.688	3.37
249.064	3.26
249.44	3.13
249.815	3.12
250.191	3.22
250.567	3.05
250.943	2.9
251.318	2.86
251.694	2.9
252.069	2.77
252.445	2.64
252.82	2.54
253.196	2.39
253.571	2.11
253.947	2.51
254.322	2.55
254.697	2.58
255.073	2.51
255.448	2.51
255.823	2.81
256.198	3.07
256.573	3.07
256.948	3.11
257.323	3.22
257.698	3.28
258.073	3.39
258.448	3.41
258.823	3.43
259.198	3.48
259.573	3.45
259.948	3.37
260.322	3.38
260.697	3.49
261.072	3.44
261.446	3.42
261.821	3.19
262.195	3.2
262.57	3.15
262.944	3.08
263.319	3.22
263.693	3.21
264.067	3.18
264.442	3.01
264.816	2.87
265.19	2.68
265.564	2.58
265.938	2.55
266.313	2.48
266.687	2.59
267.061	2.66
267.435	2.79
267.809	2.83
268.183	3.03
268.556	2.75
268.93	2.71
269.304	2.71
269.678	2.93
270.051	2.84
270.425	3.01
270.799	3.1
271.172	3.04
271.546	3.08
271.919	3.08
272.293	3.32
272.666	3.45
273.04	3.48
273.413	3.64
273.787	3.58
274.16	3.71
274.533	3.58
274.906	3.5
275.279	3.45
275.653	3.38
276.026	3.22
276.399	3.47
276.772	3.67
277.145	3.72
277.518	3.61
277.891	3.72
278.263	3.52
278.636	3.69
279.009	3.76
279.382	3.74
279.755	3.78
280.127	3.55
280.5	3.65
280.872	3.72
281.245	3.58
281.617	3.68
281.99	3.7
282.362	3.81
282.735	3.53
283.107	3.44
283.479	3.55
283.852	3.57
284.224	3.51
284.596	3.6
284.968	3.5
285.34	3.68
285.713	3.64
286.085	3.73
286.457	3.63
286.829	3.58
287.201	3.68
287.572	3.47
287.944	3.47
288.316	3.43
288.688	3.44
289.06	3.47
289.431	3.34
289.803	3.36
290.175	3.3
290.546	3.55
290.918	3.6
291.289	3.63
291.661	3.58
292.032	3.65
292.403	3.55
292.775	3.7
293.146	3.47
293.517	3.41
293.889	3.44
294.26	3.4
294.631	3.44
295.002	3.37
295.373	3.62
295.744	3.71
296.115	3.7
296.486	3.62
296.857	3.61
297.228	3.8
297.599	3.68
297.97	3.75
298.34	3.83
298.711	3.85
299.082	3.81
299.452	3.85
299.823	3.92
300.194	3.95
300.564	3.94
300.935	4.08
301.305	4.13
301.676	4.1
302.046	4.23
302.416	4.36
302.787	4.42
303.157	4.27
303.527	4.28
303.897	4.37
304.267	4.57
304.637	4.66
305.008	4.57
305.378	4.72
305.748	4.85
306.117	4.76
306.487	4.82
306.857	4.95
307.227	5.04
307.597	4.91
307.967	4.88
308.336	5
308.706	5.09
309.076	5.22
309.445	5.24
309.815	5.23
310.184	5.21
310.554	5.26
310.923	5.4
311.293	5.42
311.662	5.4
312.031	5.22
312.401	5.24
312.77	5.34
313.139	5.36
313.508	5.43
313.877	5.59
314.246	5.62
314.616	5.64
314.985	5.69
315.353	5.7
315.722	5.79
316.091	5.68
316.46	5.59
316.829	5.68
317.198	5.78
317.567	5.81
317.935	5.9
318.304	5.9
318.672	5.77
319.041	5.93
319.41	5.91
319.778	6.02
320.147	6.21
320.515	6.3
320.883	6.28
321.252	6.36
321.62	6.39
321.988	6.49
322.357	6.45
322.725	6.59
323.093	6.78
323.461	6.91
323.829	7.1
324.197	7.17
324.565	7.14
324.933	7.15
325.301	7.3
325.669	7.24
326.037	7.19
326.405	7.39
326.772	7.44
327.14	7.51
327.508	7.66
327.875	7.53
328.243	7.55
328.61	7.7
328.978	7.53
329.346	7.59
329.713	7.59
330.08	7.71
330.448	7.69
330.815	7.66
331.182	7.67
331.55	7.59
331.917	7.68
332.284	7.75
332.651	7.78
333.018	7.7
333.385	7.8
333.752	8.03
334.119	8.12
334.486	8.06
334.853	8.12
335.22	8.16
335.587	8.31
335.954	8.27
336.32	8.25
336.687	8.37
337.054	8.31
337.42	8.43
337.787	8.42
338.153	8.5
338.52	8.58
338.886	8.5
339.253	8.44
339.619	8.41
339.986	8.45
340.352	8.6
340.718	8.66
341.084	8.62
341.451	8.64
341.817	8.57
342.183	8.61
342.549	8.67
342.915	8.56
343.281	8.5
343.647	8.57
344.013	8.63
344.379	8.66
344.745	8.7
345.11	8.74
345.476	8.85
345.842	8.82
346.208	8.81
346.573	9.02
346.939	9.21
347.304	9.26
347.67	9.26
348.035	9.2
348.401	9.24
348.766	9.32
349.132	9.38
349.497	9.41
349.862	9.48
350.228	9.41
350.593	9.47
350.958	9.46
351.323	9.43
351.688	9.41
352.053	9.49
352.418	9.53
352.783	9.48
353.148	9.4
353.513	9.42
353.878	9.42
354.243	9.31
354.608	9.2
354.972	9.15
355.337	9.14
355.702	9.18
356.066	9.18
356.431	9.21
356.795	9.14
357.16	9.1
357.524	9.02
357.889	9.02
358.253	9.12
358.618	9.13
358.982	9.11
359.346	9.06
359.71	9
360.075	9
360.439	9.04
360.803	9.06
361.167	8.96
361.531	8.91
361.895	8.88
362.259	8.91
362.623	8.94
362.987	8.9
363.351	8.84
363.714	8.84
364.078	8.76
364.442	8.66
364.806	8.66
365.169	8.62
365.533	8.58
365.896	8.5
366.26	8.52
366.623	8.48
366.987	8.51
367.35	8.47
367.714	8.46
368.077	8.37
368.44	8.32
368.803	8.32
369.167	8.3
369.53	8.28
369.893	8.28
370.256	8.17
370.619	8.14
370.982	8.07
371.345	7.95
371.708	7.88
372.071	7.9
372.434	7.85
372.797	7.88
373.159	7.77
373.522	7.73
373.885	7.65
374.247	7.6
374.61	7.46
374.973	7.4
375.335	7.28
375.698	7.25
376.06	7.15
376.423	7.09
376.785	7.14
377.147	7.05
377.51	6.99
377.872	7.01
378.234	6.99
378.596	6.96
378.958	6.9
379.321	6.95
379.683	6.89
380.045	6.86
380.407	6.76
380.769	6.75
381.13	6.66
381.492	6.65
381.854	6.58
382.216	6.57
382.578	6.5
382.939	6.44
383.301	6.4
383.663	6.41
384.024	6.39
384.386	6.31
384.747	6.32
385.109	6.3
385.47	6.2
385.832	6.07
386.193	6.1
386.554	6.09
386.916	5.99
387.277	5.94
387.638	5.89
387.999	5.84
388.36	5.86
388.721	5.85
389.082	5.78
389.443	5.74
389.804	5.69
390.165	5.61
390.526	5.57
390.887	5.52
391.248	5.52
391.609	5.49
391.969	5.4
392.33	5.33
392.691	5.26
393.051	5.24
393.412	5.28
393.772	5.19
394.133	5.12
394.493	5.08
394.854	5.06
395.214	5.05
395.574	5
395.935	4.97
396.295	4.91
396.655	4.9
397.015	4.88
397.376	4.82
397.736	4.82
398.096	4.86
398.456	4.81
398.816	4.72
399.176	4.7
399.535	4.69
399.895	4.64
400.255	4.64
400.615	4.57
400.975	4.49
401.334	4.46
401.694	4.43
402.054	4.42
402.413	4.36
402.773	4.32
403.132	4.26
403.492	4.21
403.851	4.18
404.211	4.12
404.57	4.08
404.929	4.09
405.288	4.08
405.648	4.03
406.007	4.03
406.366	4.01
406.725	4.01
407.084	3.97
407.443	3.98
407.802	3.97
408.161	4
408.52	4
408.879	3.98
409.238	4
409.596	3.98
409.955	4
410.314	4
410.673	4.02
411.031	4.01
411.39	3.98
411.748	3.99
412.107	4
412.465	4
412.824	3.97
413.182	3.94
413.54	3.91
413.899	3.9
414.257	3.82
414.615	3.79
414.974	3.76
415.332	3.73
415.69	3.7
416.048	3.64
416.406	3.62
416.764	3.58
417.122	3.58
417.48	3.55
417.838	3.52
418.195	3.51
418.553	3.49
418.911	3.47
419.269	3.46
419.626	3.42
419.984	3.4
420.342	3.37
420.699	3.35
421.057	3.34
421.414	3.32
421.772	3.31
422.129	3.32
422.486	3.3
422.844	3.29
423.201	3.26
423.558	3.27
423.915	3.26
424.273	3.25
424.63	3.22
424.987	3.22
425.344	3.2
425.701	3.19
426.058	3.18
426.415	3.18
426.772	3.16
427.128	3.17
427.485	3.17
427.842	3.18
428.199	3.18
428.555	3.19
428.912	3.2
429.269	3.2
429.625	3.18
429.982	3.19
430.338	3.18
430.695	3.19
431.051	3.18
431.407	3.18
431.764	3.18
432.12	3.18
432.476	3.16
432.832	3.14
433.189	3.15
433.545	3.15
433.901	3.11
434.257	3.11
434.613	3.11
434.969	3.09
435.325	3.11
435.681	3.12
436.036	3.12
436.392	3.12
436.748	3.13
437.104	3.12
437.459	3.12
437.815	3.13
438.171	3.1
438.526	3.11
438.882	3.12
439.237	3.12
439.593	3.13
439.948	3.13
440.304	3.15
440.659	3.14
441.014	3.13
441.369	3.13
441.725	3.11
442.08	3.09
442.435	3.08
442.79	3.08
443.145	3.05
443.5	3.03
443.855	3
444.21	2.99
444.565	2.99
444.92	2.97
445.275	2.96
445.629	2.97
445.984	2.95
446.339	2.92
446.693	2.88
447.048	2.87
447.403	2.86
447.757	2.84
448.112	2.81
448.466	2.81
448.82	2.81
449.175	2.83
449.529	2.82
449.883	2.8
450.238	2.78
450.592	2.79
450.946	2.77
451.3	2.78
451.654	2.75
452.008	2.75
452.362	2.75
452.716	2.76
453.07	2.76
453.424	2.75
453.778	2.76
454.132	2.77
454.486	2.75
454.839	2.74
455.193	2.75
455.547	2.75
455.9	2.76
456.254	2.76
456.607	2.77
456.961	2.77
457.314	2.8
457.668	2.79
458.021	2.78
458.375	2.79
458.728	2.79
459.081	2.82
459.434	2.79
459.787	2.8
460.141	2.78
460.494	2.79
460.847	2.8
461.2	2.82
461.553	2.81
461.906	2.83
462.259	2.85
462.611	2.85
462.964	2.88
463.317	2.89
463.67	2.89
464.022	2.9
464.375	2.91
464.728	2.9
465.08	2.93
465.433	2.93
465.785	2.92
466.138	2.93
466.49	2.94
466.843	2.97
467.195	2.96
467.547	2.97
467.899	2.97
468.252	2.96
468.604	2.98
468.956	3
469.308	3.02
469.66	3.02
470.012	3.04
470.364	3.04
470.716	3.04
471.068	3.04
471.42	3.06
471.772	3.07
472.123	3.08
472.475	3.07
472.827	3.08
473.178	3.12
473.53	3.11
473.882	3.11
474.233	3.13
474.585	3.13
474.936	3.15
475.288	3.17
475.639	3.16
475.99	3.15
476.342	3.16
476.693	3.14
477.044	3.15
477.395	3.13
477.746	3.11
478.097	3.08
478.448	3.07
478.8	3.06
479.15	3.05
479.501	3.04
479.852	3.02
480.203	3.02
480.554	3.02
480.905	3.03
481.255	3.02
481.606	3.02
481.957	3.03
482.307	3.02
482.658	3.02
483.009	3.02
483.359	3.02
483.709	3.03
484.06	3.03
484.41	3.03
484.761	3.03
485.111	3.04
485.461	3.05
485.811	3.05
486.162	3.05
486.512	3.06
486.862	3.07
487.212	3.08
487.562	3.08
487.912	3.08
488.262	3.08
488.612	3.09
488.961	3.09
489.311	3.1
489.661	3.11
490.011	3.11
490.36	3.12
490.71	3.13
491.06	3.13
491.409	3.14
491.759	3.15
492.108	3.15
492.458	3.15
492.807	3.17
493.157	3.19
493.506	3.21
493.855	3.22
494.204	3.24
494.554	3.25
494.903	3.27
495.252	3.29
495.601	3.33
495.95	3.33
496.299	3.35
496.648	3.36
496.997	3.4
497.346	3.44
497.695	3.46
498.043	3.49
498.392	3.51
498.741	3.56
499.09	3.6
499.438	3.65
499.787	3.69
500.135	3.74
500.484	3.77
500.832	3.81
501.181	3.85
501.529	3.9
501.878	3.95
502.226	4.02
502.574	4.06
502.923	4.1
503.271	4.15
503.619	4.2
503.967	4.24
504.315	4.29
504.663	4.33
505.011	4.39
505.359	4.45
505.707	4.49
506.055	4.54
506.403	4.59
506.751	4.65
507.098	4.7
507.446	4.76
507.794	4.82
508.141	4.88
508.489	4.92
508.837	4.99
509.184	5.04
509.531	5.08
509.879	5.14
510.226	5.19
510.574	5.25
510.921	5.33
511.268	5.38
511.616	5.44
511.963	5.52
512.31	5.55
512.657	5.62
513.004	5.7
513.351	5.77
513.698	5.85
514.045	5.92
514.392	5.99
514.739	6.08
515.086	6.18
515.432	6.25
515.779	6.35
516.126	6.44
516.473	6.53
516.819	6.64
517.166	6.73
517.512	6.83
517.859	6.93
518.205	7.01
518.552	7.1
518.898	7.19
519.245	7.25
519.591	7.36
519.937	7.46
520.283	7.57
520.629	7.68
520.976	7.78
521.322	7.88
521.668	8.03
522.014	8.12
522.36	8.24
522.706	8.39
523.052	8.56
523.398	8.73
523.743	8.91
524.089	9.06
524.435	9.22
524.781	9.36
525.126	9.49
525.472	9.63
525.817	9.79
526.163	9.89
526.509	10.03
526.854	10.14
527.199	10.24
527.545	10.34
527.89	10.45
528.235	10.56
528.581	10.69
528.926	10.79
529.271	10.92
529.616	11.03
529.961	11.16
530.306	11.28
530.651	11.4
530.996	11.53
531.341	11.69
531.686	11.85
532.031	12.02
532.376	12.18
532.721	12.35
533.065	12.5
533.41	12.72
533.755	12.9
534.099	13.1
534.444	13.3
534.788	13.5
535.133	13.69
535.477	13.89
535.822	14.11
536.166	14.33
536.51	14.57
536.855	14.82
537.199	15.08
537.543	15.35
537.887	15.63
538.231	15.92
538.576	16.2
538.92	16.49
539.264	16.75
539.608	17.02
539.951	17.29
540.295	17.55
540.639	17.74
540.983	17.96
541.327	18.18
541.671	18.4
542.014	18.6
542.358	18.84
542.701	19.06
543.045	19.27
543.389	19.53
543.732	19.74
544.075	19.98
544.419	20.2
544.762	20.44
545.105	20.69
545.449	20.93
545.792	21.2
546.135	21.45
546.478	21.74
546.821	22.03
547.165	22.3
547.508	22.59
547.851	22.9
548.194	23.18
548.536	23.48
548.879	23.77
549.222	24.1
549.565	24.39
549.908	24.69
550.25	24.99
550.593	25.25
550.936	25.58
551.278	25.89
551.621	26.25
551.963	26.53
552.306	26.82
552.648	27.1
552.991	27.37
553.333	27.65
553.675	27.89
554.017	28.15
554.36	28.42
554.702	28.68
555.044	28.92
555.386	29.23
555.728	29.52
556.07	29.8
556.412	30.04
556.754	30.32
557.096	30.6
557.438	30.8
557.78	31.13
558.121	31.38
558.463	31.65
558.805	31.85
559.147	32.08
559.488	32.26
559.83	32.54
560.171	32.82
560.513	33.1
560.854	33.35
561.196	33.58
561.537	33.73
561.878	33.95
562.22	34.21
562.561	34.4
562.902	34.64
563.243	34.85
563.584	35.08
563.925	35.31
564.266	35.49
564.607	35.75
564.948	35.89
565.289	36.05
565.63	36.19
565.971	36.35
566.312	36.53
566.653	36.78
566.993	36.91
567.334	37
567.675	37.14
568.015	37.29
568.356	37.4
568.696	37.62
569.037	37.8
569.377	37.98
569.718	38.13
570.058	38.26
570.398	38.43
570.739	38.56
571.079	38.66
571.419	38.77
571.759	38.86
572.099	39
572.439	39.11
572.779	39.26
573.119	39.42
573.459	39.56
573.799	39.7
574.139	39.83
574.479	39.95
574.819	40.04
575.158	40.16
575.498	40.3
575.838	40.38
576.177	40.47
576.517	40.55
576.856	40.69
577.196	40.78
577.535	40.89
577.875	41.05
578.214	41.16
578.553	41.28
578.893	41.45
579.232	41.59
579.571	41.7
579.91	41.8
580.25	41.88
580.589	41.96
580.928	42
581.267	42.06
581.606	42.21
581.945	42.32
582.283	42.41
582.622	42.53
582.961	42.63
583.3	42.75
583.639	42.82
583.977	42.88
584.316	43.02
584.654	42.98
584.993	43.03
585.332	43.08
585.67	43.13
586.008	43.22
586.347	43.23
586.685	43.34
587.024	43.5
587.362	43.65
587.7	43.67
588.038	43.86
588.376	43.99
588.715	44.01
589.053	44.08
589.391	44.13
589.729	44.15
590.067	44.17
590.404	44.2
590.742	44.27
591.08	44.38
591.418	44.35
591.756	44.44
592.093	44.45
592.431	44.54
592.769	44.6
593.106	44.61
593.444	44.7
593.781	44.8
594.119	44.74
594.456	44.76
594.793	44.86
595.131	44.83
595.468	44.89
595.805	44.99
596.143	45.03
596.48	45.12
596.817	45.23
597.154	45.31
597.491	45.31
597.828	45.42
598.165	45.48
598.502	45.54
598.839	45.59
599.176	45.64
599.512	45.76
599.849	45.83
600.186	45.88
600.523	45.9
600.859	45.9
601.196	46
601.532	45.99
601.869	46
602.205	46.04
602.542	46.04
602.878	46.08
603.215	46.14
603.551	46.15
603.887	46.14
604.223	46.17
604.56	46.22
604.896	46.17
605.232	46.12
605.568	46.18
605.904	46.2
606.24	46.24
606.576	46.21
606.912	46.24
607.248	46.32
607.583	46.32
607.919	46.39
608.255	46.4
608.591	46.43
608.926	46.45
609.262	46.48
609.597	46.61
609.933	46.58
610.268	46.6
610.604	46.65
610.939	46.74
611.275	46.8
611.61	46.83
611.945	46.97
612.281	47.07
612.616	47.03
612.951	47.1
613.286	47.18
613.621	47.24
613.956	47.29
614.291	47.31
614.626	47.36
614.961	47.34
615.296	47.36
615.631	47.45
615.966	47.5
616.3	47.5
616.635	47.47
616.97	47.58
617.304	47.54
617.639	47.48
617.973	47.44
618.308	47.44
618.642	47.49
618.977	47.47
619.311	47.45
619.646	47.56
619.98	47.59
620.314	47.58
620.648	47.58
620.983	47.59
621.317	47.61
621.651	47.63
621.985	47.64
622.319	47.68
622.653	47.7
622.987	47.78
623.321	47.86
623.655	47.85
623.988	47.81
624.322	47.86
624.656	47.93
624.99	48.01
625.323	48.09
625.657	48.11
625.99	48.09
626.324	48.11
626.657	48.2
626.991	48.19
627.324	48.3
627.658	48.32
627.991	48.43
628.324	48.48
628.657	48.54
628.991	48.62
629.324	48.66
629.657	48.76
629.99	48.76
630.323	48.78
630.656	48.82
630.989	48.9
631.322	48.91
631.655	48.96
631.987	48.9
632.32	48.89
632.653	48.84
632.986	48.82
633.318	48.81
633.651	48.81
633.984	48.83
634.316	48.81
634.649	48.78
634.981	48.73
635.313	48.69
635.646	48.75
635.978	48.7
636.31	48.7
636.643	48.62
636.975	48.6
637.307	48.62
637.639	48.63
637.971	48.61
638.303	48.66
638.635	48.63
638.967	48.65
639.299	48.7
639.631	48.71
639.963	48.69
640.295	48.73
640.626	48.74
640.958	48.86
641.29	48.84
641.621	48.85
641.953	48.93
642.285	48.91
642.616	48.92
642.948	48.95
643.279	49.04
643.61	49.12
643.942	49.09
644.273	49.07
644.604	49.07
644.936	48.97
645.267	48.99
645.598	49.09
645.929	49.02
646.26	48.9
646.591	48.93
646.922	49.06
647.253	49.15
647.584	49.09
647.915	49.03
648.245	49
648.576	49.04
648.907	48.96
649.238	49.02
649.568	49
649.899	49.06
650.229	49.04
650.56	49.04
650.89	49.02
651.221	48.93
651.551	49.01
651.882	49.2
652.212	49.14
652.542	48.99
652.872	49
653.203	49.07
653.533	49.12
653.863	49.18
654.193	49.09
654.523	49.13
654.853	49.14
655.183	49.22
655.513	49.26
655.843	49.31
656.172	49.39
656.502	49.44
656.832	49.29
657.162	49.37
657.491	49.41
657.821	49.44
658.15	49.51
658.48	49.35
658.809	49.39
659.139	49.48
659.468	49.6
659.798	49.72
660.127	49.83
660.456	49.83
660.785	49.78
661.115	49.84
661.444	49.84
661.773	49.85
662.102	49.89
662.431	49.93
662.76	49.9
663.089	49.82
663.418	49.78
663.747	49.93
664.076	49.87
664.404	49.84
664.733	49.94
665.062	49.96
665.39	50.08
665.719	49.88
666.048	49.86
666.376	49.7
666.705	49.68
667.033	49.6
667.362	49.64
667.69	49.66
668.018	49.62
668.347	49.66
668.675	49.67
669.003	49.72
669.331	49.8
669.659	49.84
669.987	49.79
670.315	49.86
670.643	49.86
670.971	49.87
671.299	49.87
671.627	49.85
671.955	49.93
672.283	49.95
672.61	50.12
672.938	50.11
673.266	50.18
673.593	50.23
673.921	50.12
674.249	50.16
674.576	50.15
674.904	50.06
675.231	49.88
675.558	49.81
675.886	49.73
676.213	49.53
676.54	49.54
676.867	49.69
677.195	49.58
677.522	49.65
677.849	49.67
678.176	49.67
678.503	49.61
678.83	49.59
679.157	49.55
679.484	49.51
679.81	49.46
680.137	49.64
680.464	49.62
680.791	49.69
681.117	49.75
681.444	49.77
681.771	49.86
682.097	50
682.424	50.05
682.75	50.03
683.077	50.02
683.403	50.01
683.729	50.01
684.056	50.06
684.382	49.96
684.708	49.86
685.034	49.84
685.36	49.92
685.686	49.87
686.012	49.9
686.339	49.9
686.664	49.97
686.99	49.86
687.316	49.89
687.642	49.97
687.968	49.84
688.294	49.82
688.619	49.84
688.945	49.75
689.271	49.88
689.596	49.85
689.922	50.01
690.247	50.02
690.573	50.05
690.898	50.14
691.224	50.2
691.549	50.22
691.874	50.17
692.2	50.22
692.525	50.27
692.85	50.34
693.175	50.33
693.5	50.31
693.825	50.22
694.15	50.18
694.475	50.21
694.8	50.04
695.125	50.17
695.45	50.18
695.775	50.34
696.099	50.33
696.424	50.39
696.749	50.29
697.073	50.45
697.398	50.44
697.723	50.46
698.047	50.46
698.372	50.4
698.696	50.42
699.02	50.32
699.345	50.3
699.669	50.2
699.993	50.2
700.318	50.19
700.642	50.26
700.966	50.36
701.29	50.33
701.614	50.63
701.938	50.43
702.262	50.47
702.586	50.41
702.91	50.28
703.234	50.16
703.557	50.29
703.881	50.17
704.205	50.07
704.529	49.91
704.852	49.88
705.176	50.01
705.499	50.15
705.823	50.26
706.146	50.34
706.47	50.47
706.793	50.51
707.117	50.51
707.44	50.49
707.763	50.41
708.086	50.32
708.409	50.2
708.733	50.18
709.056	50.05
709.379	50.03
709.702	50.17
710.025	50.14
710.348	50.19
710.671	49.99
710.993	49.91
711.316	49.89
711.639	50.02
711.962	50.06
712.284	49.96
712.607	49.97
712.93	49.89
713.252	49.77
713.575	49.85
713.897	49.8
714.22	49.85
714.542	49.9
714.864	49.97
715.187	49.92
715.509	50.07
715.831	50.14
716.153	50.1
716.475	50.24
716.798	50.44
717.12	50.39
717.442	50.64
717.764	50.78
718.085	50.79
718.407	50.76
718.729	50.62
719.051	50.71
719.373	50.83
719.695	50.83
720.016	51.11
720.338	51.16
720.659	51.22
720.981	51.23
721.302	51.2
721.624	51.16
721.945	51.31
722.267	51.35
722.588	51.21
722.909	51.4
723.231	51.23
723.552	51.19
723.873	51.11
724.194	50.78
724.515	50.72
724.836	50.89
725.157	50.95
725.478	50.86
725.799	50.84
726.12	50.77
726.441	50.84
726.762	50.61
727.083	50.57
727.403	50.57
727.724	50.68
728.045	50.49
728.365	50.5
728.686	50.33
729.006	50.32
729.327	50.3
729.647	50.03
729.967	49.85
730.288	49.9
730.608	49.66
730.928	49.92
731.249	49.95
731.569	49.88
731.889	49.67
732.209	49.85
732.529	49.88
732.849	49.67
733.169	49.53
733.489	49.74
733.809	49.65
734.129	49.72
734.448	49.59
734.768	49.6
735.088	49.6
735.408	49.71
735.727	49.91
736.047	50.19
736.366	50.18
736.686	50.38
737.005	50.43
737.325	50.68
737.644	50.69
737.963	50.54
738.283	50.37
738.602	50.54
738.921	50.57
739.24	50.53
739.56	50.53
739.879	50.63
740.198	50.55
740.517	50.4
740.836	50.19
741.155	49.91
741.473	50.15
741.792	49.99
742.111	49.84
742.43	49.6
742.748	49.44
743.067	49.73
743.386	49.59
743.704	49.32
744.023	49.68
744.341	49.5
744.66	49.83
744.978	49.91
745.297	49.76
745.615	49.81
745.933	49.73
746.252	50.12
746.57	50.08
746.888	49.84
747.206	49.99
747.524	50.13
747.842	50.4
748.16	50.45
748.478	50.69
748.796	50.72
749.114	50.68
749.432	50.82
749.749	50.7
750.067	50.78
750.385	50.9
750.703	50.23
751.02	50.16
751.338	49.99
751.655	50.17
751.973	50.34
752.29	50.17
752.608	50.37
752.925	50.22
753.242	50.43
753.56	50.77
753.877	50.91
754.194	50.95
754.511	50.91
754.828	50.4
755.145	50.69
755.462	50.81
755.779	50.86
756.096	50.93
756.413	50.95
756.73	50.93
757.047	50.81
757.364	51.18
757.68	50.94
757.997	50.96
758.314	51
758.63	51.03
758.947	51.13
759.264	50.99
759.58	50.96
759.896	50.58
760.213	50.1
760.529	49.89
760.846	49.75
761.162	49.67
761.478	50.08
761.794	49.72
762.11	49.86
762.426	49.68
762.743	49.63
763.059	49.71
763.375	49.79
763.69	49.83
764.006	49.83
764.322	50.05
764.638	50.14
764.954	50.11
765.27	50.12
765.585	50.31
765.901	50.3
766.216	50.19
766.532	50.45
766.848	50.79
767.163	50.64
767.478	50.77
767.794	50.96
768.109	50.83
768.424	51.04
768.74	51.02
769.055	51.24
769.37	51.48
769.685	51.43
770	51.29
770.315	51.39
770.63	51.28
770.945	51.35
771.26	51.09
771.575	50.92
771.89	50.94
772.205	50.35
772.52	50.47
772.834	50.5
773.149	50.17
773.464	50.16
773.778	50.85
774.093	50.84
774.407	50.92
774.722	51.12
775.036	51.41
775.351	50.87
775.665	51.2
775.979	50.45
776.293	50.29
776.608	50.41
776.922	50.32
777.236	50.05
777.55	50.06
777.864	50.38
778.178	50.53
778.492	50.63
778.806	51.01
779.12	51.06
779.434	51.17
779.747	51.52
780.061	51.24
780.375	50.77
780.689	50.59
781.002	50.44
781.316	50.41
781.629	50.11
781.943	50.88
782.256	50.47
782.57	50.99
782.883	51.02
783.196	50.36
783.51	50.62
783.823	50.89
784.136	50.97
784.449	51.13
784.762	51.27
785.075	51.01
785.388	50.88
785.701	50.98
786.014	50.77
786.327	51.03
786.64	51.17
786.953	51.24
787.266	51.4
787.578	51.65
787.891	51.2
788.204	51.08
788.516	50.84
788.829	51.11
789.141	51.3
789.454	51.03
789.766	51.66
790.079	51.9
790.391	52.14
790.703	52.76
791.016	52.69
791.328	52.93
791.64	53.11
791.952	53.05
792.264	52.89
792.576	53.07
792.888	52.86
793.2	53.22
793.512	53.46
793.824	53.62
794.136	53.77
794.448	54.4
794.76	54.65
795.071	54.66
795.383	54.37
795.695	53.93
796.006	54.31
796.318	54.43
796.629	53.99
796.941	54.21
797.252	53.53
797.564	53.46
797.875	53.41
798.186	53.08
798.497	52.97
798.809	53.39
799.12	53.3
799.431	52.99
799.742	52.8
800.053	52.44
800.364	52.01
800.675	51.17
800.986	50.72
801.297	49.88
801.608	49.34
801.918	49.03
802.229	49.09
802.54	49.19
802.851	48.92
803.161	49.3
803.472	48.6
803.782	48.96
804.093	49.26
804.403	49.33
804.714	49.69
805.024	49.75
805.334	49.38
805.645	48.97
805.955	48.86
806.265	48.72
806.575	48.9
806.885	49.42
807.195	50.03
807.505	50.2
807.815	50.92
808.125	51.34
808.435	51.81
808.745	51.87
809.055	52.31
809.365	52.52
809.674	51.84
809.984	52.12
810.294	51.55
810.603	50.77
810.913	50.48
811.222	50.06
811.532	50.11
811.841	50.76
812.151	52.02
812.46	51.94
812.769	51.89
813.079	51.95
813.388	52.47
813.697	52.54
814.006	52.39
814.315	51.6
814.624	51.84
814.933	50.85
815.242	50.72
815.551	49.77
815.86	48.95
816.169	49.23
816.478	49.38
816.786	49.39
817.095	49.71
817.404	49.77
817.712	49.56
818.021	50.01
818.33	50.16
818.638	49.93
818.947	50.58
819.255	50.49
819.563	50.18
819.872	49.87
820.18	49.97
820.488	50.1
820.796	50.65
821.105	50.65
821.413	51.31
821.721	51.47
822.029	51.5
822.337	51.65
822.645	51.42
822.953	51.42
823.26	51.48
823.568	51.45
823.876	51.38
824.184	51.59
824.491	51.31
824.799	51.04
825.107	50.95
825.414	50.86
825.722	51.04
826.029	51.27
826.337	51.36
826.644	51.24
826.951	51.16
827.259	51.01
827.566	50.91
827.873	50.47
828.18	50.22
828.488	50.07
828.795	50.21
829.102	50.47
829.409	50.33
829.716	50.01
830.023	50.17
830.329	50.29
830.636	50.19
830.943	50.97
831.25	51.08
831.557	51.43
831.863	51.28
832.17	51.2
832.476	50.78
832.783	50.89
833.089	51.02
833.396	51.06
833.702	50.93
834.009	51.69
834.315	51.83
834.621	52.21
834.928	52.55
835.234	51.81
835.54	51.68
835.846	51.34
836.152	51.53
836.458	51.44
836.764	50.68
837.07	50.61
837.376	50.25
837.682	50.23
837.988	49.7
838.293	49.71
838.599	49.59
838.905	50.11
839.211	49.54
839.516	49.5
839.822	49.63
840.127	50.45
840.433	49.16
840.738	49.68
841.044	49.56
841.349	49.88
841.654	51.73
841.959	51.7
842.265	52.97
842.57	53.84
842.875	53.23
843.18	54.33
843.485	54.46
843.79	54.26
844.095	54.79
844.4	55.61
844.705	56.16
845.01	55.57
845.315	54.67
845.619	53.63
845.924	54.34
846.229	53.9
846.533	53.73
846.838	54.3
847.142	53.22
847.447	52.86
847.751	53.94
848.056	51.55
848.36	53.11
848.664	52.37
848.969	50.76
849.273	50.91
849.577	50.67
849.881	51.31
850.185	51.05
850.489	50.57
850.794	49.24
851.097	49.54
851.401	50.15
851.705	51.94
852.009	54.75
852.313	56.08
852.617	57.46
852.92	58.23
853.224	58.49
853.528	60.3
853.831	61.31
854.135	60.29
854.438	61.42
854.742	60.26
855.045	59.56
855.349	60.03
855.652	61.42
855.955	60.9
856.259	60.24
856.562	59.68
856.865	58.64
857.168	58.67
857.471	58.65
857.774	57.74
858.077	55.62
858.38	54.76
858.683	52.1
858.986	54.89
859.289	53.14
859.592	53.24
859.894	50.26
860.197	48.56
860.5	48.26
860.802	46.49
861.105	46.18
861.407	46.2
861.71	45.64
862.012	46.42
862.315	45.05
862.617	43.21
862.919	45.19
863.222	46.44
863.524	46.45
863.826	46.69
864.128	47.22
864.43	49.44
864.732	51.42
865.034	51.14
865.336	46.03
865.638	44.71
865.94	45.69
866.242	46.09
866.544	45.56
866.846	44.48
867.147	45.89
867.449	44.57
867.751	44.13
868.052	45.75
868.354	43.91
868.655	47.44
868.957	48.39
869.258	46.43
869.56	45.17
869.861	44.68
870.162	44.98
870.463	45.19
870.765	42.68
871.066	39.76
871.367	43.18
871.668	43.14
871.969	42.75
872.27	42.5
872.571	40.44
872.872	42.92
873.173	42.12
873.473	43.22
873.774	46.28
874.075	47.15
874.376	45.27
874.676	45.01
874.977	43.69
875.277	43.57
875.578	43.2
875.878	43.05
876.179	43.56
876.479	42.12
876.78	41.98
877.08	43.55
877.38	44.95
877.68	40.91
877.981	43.33
878.281	45.2
878.581	43.17
