Data from BA58010_Reflection_00002.txt Node
Date: Mon Nov 18 16:06:45 EST 2019
User: vgr7
Spectrometer: USB2G7710
Scans to average: 3
Trigger mode: 4
Integration Time (sec): 2.000000E-2
Electric dark correction enabled: true
Boxcar width: 10
XAxis mode: Wavelengths
Number of Pixels in Spectrum: 2048
>>>>>Begin Spectral Data<<<<<
177.721	-88.73
178.105	73.45
178.488	8.32
178.871	74.86
179.254	-674.19
179.636	-7.51
180.019	-763.47
180.402	-1650
180.785	278.93
181.168	213.45
181.55	110.12
181.933	110.5
182.316	115.75
182.698	104.04
183.081	89.5
183.463	84.79
183.846	100
184.228	163.21
184.611	138.34
184.993	189
185.376	370.88
185.758	485.85
186.14	112.13
186.522	59.14
186.904	34.29
187.287	84.99
187.669	191.11
188.051	208.04
188.433	113.09
188.815	63.58
189.197	-8.35
189.579	52
189.961	-26.09
190.342	-168.66
190.724	-27.66
191.106	-103.74
191.488	-50.4
191.869	22.39
192.251	47.77
192.633	40.75
193.014	17.9
193.396	-83.41
193.777	-883.61
194.159	4728.57
194.54	2196.39
194.922	-436.67
195.303	-193.03
195.684	-581.02
196.065	-200.66
196.447	-160.53
196.828	-243.92
197.209	-294.24
197.59	-346.62
197.971	2356
198.352	-367.94
198.733	-762.62
199.114	-811.17
199.495	-4556.72
199.876	3426.73
200.257	-5113.11
200.638	-1457.45
201.018	-2766.24
201.399	-2766.24
201.78	-685.05
202.16	-530.05
202.541	-678.79
202.922	3179.65
203.302	1170.82
203.683	30645.45
204.063	541.9
204.444	368.57
204.824	359.08
205.204	303.69
205.585	330.58
205.965	657.48
206.345	376.52
206.725	428.25
207.106	321.93
207.486	241.14
207.866	400.74
208.246	300.87
208.626	239.76
209.006	231.75
209.386	228.45
209.766	209.94
210.145	185.75
210.525	175.92
210.905	276.59
211.285	264.32
211.664	426.17
212.044	635.92
212.424	1050.15
212.803	1670.68
213.183	-411.69
213.562	-645.7
213.942	-471.79
214.321	-190.81
214.701	-218.81
215.08	-210.41
215.459	-172.87
215.838	-214.5
216.218	-154.57
216.597	-142.18
216.976	-123.86
217.355	-104.34
217.734	-70.03
218.113	-62.26
218.492	-56.33
218.871	-51.93
219.25	-57.99
219.629	-66.84
220.008	-70.95
220.387	-54.49
220.766	-50.69
221.144	-53.63
221.523	-41.73
221.902	-34.15
222.28	-43.22
222.659	-41.98
223.037	-38.28
223.416	-38.99
223.794	-28.24
224.173	-25.96
224.551	-23.51
224.929	-24.18
225.308	-21.8
225.686	-20.42
226.064	-16.27
226.442	-23.48
226.821	-20.81
227.199	-18.45
227.577	-16.34
227.955	-16.6
228.333	-16.2
228.711	-17.07
229.089	-15.45
229.467	-17.58
229.845	-18.02
230.222	-18.72
230.6	-17.5
230.978	-16.72
231.356	-14.48
231.733	-13.19
232.111	-13.96
232.488	-13.26
232.866	-9.64
233.243	-9.25
233.621	-10.02
233.998	-8.95
234.376	-7.23
234.753	-7.16
235.13	-6.85
235.508	-5.98
235.885	-6.81
236.262	-7.21
236.639	-5.82
237.016	-5.01
237.393	-2.85
237.77	-1.3
238.147	-0.21
238.524	-0.71
238.901	-0.66
239.278	-0.41
239.655	0.55
240.032	0.83
240.409	0.24
240.785	-0.74
241.162	-0.33
241.539	-0.62
241.915	-0.31
242.292	-0.14
242.668	0.3
243.045	0.5
243.421	0.69
243.798	1.13
244.174	1.28
244.551	1.44
244.927	1.33
245.303	1.29
245.679	1.03
246.056	1.16
246.432	1.2
246.808	1.32
247.184	1.01
247.56	0.69
247.936	0.49
248.312	0.57
248.688	0.86
249.064	0.76
249.44	1.05
249.815	0.68
250.191	0.69
250.567	0.65
250.943	0.56
251.318	0.62
251.694	0.52
252.069	0.56
252.445	0.51
252.82	0.48
253.196	0.45
253.571	0.47
253.947	0.12
254.322	0.25
254.697	0.16
255.073	0.05
255.448	0.07
255.823	0.36
256.198	0.5
256.573	0.39
256.948	0.44
257.323	0.24
257.698	0.46
258.073	0.46
258.448	0.45
258.823	0.54
259.198	0.32
259.573	0.48
259.948	0.35
260.322	0.35
260.697	0.33
261.072	0.28
261.446	0.2
261.821	0.3
262.195	0.25
262.57	0.23
262.944	0.36
263.319	0.46
263.693	0.47
264.067	0.51
264.442	0.55
264.816	0.58
265.19	0.58
265.564	0.5
265.938	0.32
266.313	0.2
266.687	0.15
267.061	0.23
267.435	0.11
267.809	0.15
268.183	0.1
268.556	0.11
268.93	0.05
269.304	0.13
269.678	0.04
270.051	-0.03
270.425	-0
270.799	-0.03
271.172	-0.06
271.546	-0.14
271.919	-0.31
272.293	-0.48
272.666	-0.37
273.04	-0.38
273.413	-0.39
273.787	-0.22
274.16	-0.2
274.533	-0.2
274.906	-0.37
275.279	-0.31
275.653	-0.18
276.026	-0.3
276.399	-0.26
276.772	-0.16
277.145	-0.15
277.518	-0.01
277.891	0.1
278.263	0.1
278.636	0.03
279.009	0.01
279.382	0.25
279.755	0.38
280.127	0.5
280.5	0.44
280.872	0.53
281.245	0.64
281.617	0.62
281.99	0.7
282.362	0.76
282.735	0.88
283.107	0.72
283.479	0.51
283.852	0.58
284.224	0.58
284.596	0.57
284.968	0.55
285.34	0.54
285.713	0.57
286.085	0.61
286.457	0.68
286.829	0.65
287.201	0.56
287.572	0.5
287.944	0.54
288.316	0.46
288.688	0.54
289.06	0.57
289.431	0.57
289.803	0.64
290.175	0.6
290.546	0.78
290.918	0.9
291.289	0.98
291.661	0.99
292.032	0.99
292.403	0.99
292.775	1.15
293.146	1.19
293.517	1.03
293.889	1.09
294.26	1.15
294.631	1.14
295.002	1.21
295.373	1.25
295.744	1.23
296.115	1.29
296.486	1.1
296.857	1.07
297.228	1.13
297.599	1.05
297.97	1.05
298.34	0.91
298.711	0.89
299.082	0.99
299.452	0.9
299.823	1.03
300.194	1.05
300.564	0.93
300.935	0.88
301.305	0.96
301.676	0.87
302.046	0.96
302.416	1.03
302.787	0.92
303.157	0.91
303.527	0.96
303.897	0.95
304.267	1.07
304.637	1.02
305.008	1.07
305.378	1.15
305.748	1.15
306.117	1.25
306.487	1.21
306.857	1.1
307.227	1.25
307.597	1.1
307.967	1.1
308.336	1.15
308.706	1.16
309.076	1.24
309.445	1.16
309.815	1.08
310.184	0.96
310.554	1.05
310.923	1.03
311.293	0.98
311.662	0.92
312.031	0.96
312.401	1.03
312.77	0.9
313.139	0.81
313.508	0.81
313.877	0.76
314.246	0.9
314.616	0.87
314.985	0.81
315.353	0.78
315.722	0.75
316.091	0.7
316.46	0.55
316.829	0.47
317.198	0.61
317.567	0.55
317.935	0.62
318.304	0.47
318.672	0.41
319.041	0.51
319.41	0.66
319.778	0.66
320.147	0.55
320.515	0.66
320.883	0.7
321.252	0.72
321.62	0.72
321.988	0.56
322.357	0.62
322.725	0.68
323.093	0.71
323.461	0.75
323.829	0.74
324.197	0.83
324.565	0.91
324.933	0.94
325.301	0.95
325.669	1.04
326.037	1.03
326.405	1.08
326.772	0.98
327.14	0.96
327.508	0.88
327.875	0.78
328.243	0.75
328.61	0.65
328.978	0.74
329.346	0.8
329.713	0.72
330.08	0.74
330.448	0.62
330.815	0.44
331.182	0.36
331.55	0.41
331.917	0.46
332.284	0.52
332.651	0.53
333.018	0.49
333.385	0.36
333.752	0.49
334.119	0.57
334.486	0.68
334.853	0.7
335.22	0.8
335.587	0.89
335.954	0.87
336.32	0.93
336.687	0.86
337.054	0.81
337.42	0.84
337.787	0.91
338.153	0.99
338.52	1.18
338.886	1.14
339.253	1.12
339.619	1.13
339.986	1.02
340.352	1.07
340.718	1.17
341.084	1.27
341.451	1.21
341.817	1.19
342.183	1.14
342.549	1.07
342.915	1
343.281	1.02
343.647	0.99
344.013	1
344.379	0.91
344.745	0.99
345.11	0.96
345.476	0.91
345.842	0.87
346.208	0.85
346.573	0.92
346.939	0.92
347.304	0.88
347.67	0.87
348.035	0.74
348.401	0.64
348.766	0.6
349.132	0.69
349.497	0.67
349.862	0.71
350.228	0.71
350.593	0.67
350.958	0.68
351.323	0.7
351.688	0.69
352.053	0.81
352.418	0.78
352.783	0.86
353.148	0.81
353.513	0.85
353.878	0.87
354.243	0.9
354.608	0.96
354.972	0.95
355.337	0.99
355.702	1.01
356.066	1.14
356.431	1.11
356.795	1.04
357.16	1
357.524	0.89
357.889	0.9
358.253	0.97
358.618	0.99
358.982	0.9
359.346	0.86
359.71	0.8
360.075	0.74
360.439	0.75
360.803	0.77
361.167	0.74
361.531	0.7
361.895	0.62
362.259	0.59
362.623	0.6
362.987	0.61
363.351	0.65
363.714	0.62
364.078	0.63
364.442	0.62
364.806	0.61
365.169	0.7
365.533	0.73
365.896	0.69
366.26	0.71
366.623	0.82
366.987	0.84
367.35	0.86
367.714	0.89
368.077	0.87
368.44	0.86
368.803	0.9
369.167	0.87
369.53	0.91
369.893	0.94
370.256	0.87
370.619	0.91
370.982	0.89
371.345	0.86
371.708	0.91
372.071	0.95
372.434	0.94
372.797	0.9
373.159	0.87
373.522	0.9
373.885	0.88
374.247	0.88
374.61	0.88
374.973	0.89
375.335	0.87
375.698	0.89
376.06	0.91
376.423	0.86
376.785	0.98
377.147	1
377.51	0.96
377.872	1.06
378.234	1.04
378.596	1.06
378.958	1.02
379.321	1.01
379.683	1
380.045	1.08
380.407	1.08
380.769	1.09
381.13	1.04
381.492	1.04
381.854	1.02
382.216	1.04
382.578	1.02
382.939	1.01
383.301	0.98
383.663	0.98
384.024	1.01
384.386	1.03
384.747	1.06
385.109	1.09
385.47	1.05
385.832	1.04
386.193	1.08
386.554	1.09
386.916	1.06
387.277	1.07
387.638	1.07
387.999	1.04
388.36	1.01
388.721	1.06
389.082	1.06
389.443	1.04
389.804	1.02
390.165	1.03
390.526	1.07
390.887	1.09
391.248	1.14
391.609	1.13
391.969	1.08
392.33	1.05
392.691	1.05
393.051	1.09
393.412	1.09
393.772	1.03
394.133	1.05
394.493	1.04
394.854	1.03
395.214	1.04
395.574	1.09
395.935	1.13
396.295	1.13
396.655	1.14
397.015	1.19
397.376	1.2
397.736	1.21
398.096	1.24
398.456	1.25
398.816	1.22
399.176	1.21
399.535	1.23
399.895	1.22
400.255	1.22
400.615	1.15
400.975	1.15
401.334	1.16
401.694	1.16
402.054	1.17
402.413	1.2
402.773	1.14
403.132	1.11
403.492	1.12
403.851	1.12
404.211	1.12
404.57	1.08
404.929	1.11
405.288	1.09
405.648	1.04
406.007	1.03
406.366	1.04
406.725	1.07
407.084	1.09
407.443	1.1
407.802	1.11
408.161	1.13
408.52	1.13
408.879	1.13
409.238	1.13
409.596	1.15
409.955	1.14
410.314	1.18
410.673	1.17
411.031	1.15
411.39	1.15
411.748	1.15
412.107	1.17
412.465	1.13
412.824	1.16
413.182	1.17
413.54	1.17
413.899	1.16
414.257	1.14
414.615	1.12
414.974	1.12
415.332	1.1
415.69	1.1
416.048	1.09
416.406	1.11
416.764	1.12
417.122	1.12
417.48	1.11
417.838	1.1
418.195	1.1
418.553	1.1
418.911	1.1
419.269	1.1
419.626	1.11
419.984	1.11
420.342	1.11
420.699	1.11
421.057	1.11
421.414	1.1
421.772	1.1
422.129	1.1
422.486	1.11
422.844	1.11
423.201	1.1
423.558	1.11
423.915	1.1
424.273	1.09
424.63	1.09
424.987	1.09
425.344	1.11
425.701	1.11
426.058	1.11
426.415	1.11
426.772	1.11
427.128	1.11
427.485	1.11
427.842	1.1
428.199	1.12
428.555	1.12
428.912	1.14
429.269	1.16
429.625	1.15
429.982	1.15
430.338	1.16
430.695	1.18
431.051	1.18
431.407	1.2
431.764	1.19
432.12	1.18
432.476	1.17
432.832	1.15
433.189	1.14
433.545	1.14
433.901	1.13
434.257	1.12
434.613	1.12
434.969	1.11
435.325	1.13
435.681	1.11
436.036	1.11
436.392	1.1
436.748	1.1
437.104	1.1
437.459	1.1
437.815	1.09
438.171	1.09
438.526	1.08
438.882	1.06
439.237	1.07
439.593	1.09
439.948	1.07
440.304	1.08
440.659	1.1
441.014	1.11
441.369	1.1
441.725	1.09
442.08	1.11
442.435	1.12
442.79	1.11
443.145	1.11
443.5	1.13
443.855	1.14
444.21	1.13
444.565	1.14
444.92	1.15
445.275	1.16
445.629	1.16
445.984	1.16
446.339	1.17
446.693	1.15
447.048	1.14
447.403	1.15
447.757	1.16
448.112	1.14
448.466	1.12
448.82	1.14
449.175	1.15
449.529	1.14
449.883	1.14
450.238	1.12
450.592	1.14
450.946	1.12
451.3	1.11
451.654	1.11
452.008	1.11
452.362	1.09
452.716	1.07
453.07	1.06
453.424	1.07
453.778	1.09
454.132	1.11
454.486	1.11
454.839	1.12
455.193	1.1
455.547	1.11
455.9	1.15
456.254	1.15
456.607	1.14
456.961	1.14
457.314	1.15
457.668	1.17
458.021	1.16
458.375	1.15
458.728	1.15
459.081	1.15
459.434	1.13
459.787	1.13
460.141	1.14
460.494	1.13
460.847	1.14
461.2	1.13
461.553	1.12
461.906	1.13
462.259	1.12
462.611	1.14
462.964	1.13
463.317	1.12
463.67	1.13
464.022	1.14
464.375	1.12
464.728	1.1
465.08	1.1
465.433	1.09
465.785	1.11
466.138	1.11
466.49	1.12
466.843	1.12
467.195	1.14
467.547	1.13
467.899	1.14
468.252	1.12
468.604	1.13
468.956	1.12
469.308	1.13
469.66	1.12
470.012	1.1
470.364	1.1
470.716	1.1
471.068	1.09
471.42	1.1
471.772	1.13
472.123	1.17
472.475	1.18
472.827	1.18
473.178	1.18
473.53	1.16
473.882	1.16
474.233	1.16
474.585	1.16
474.936	1.16
475.288	1.15
475.639	1.18
475.99	1.17
476.342	1.18
476.693	1.18
477.044	1.2
477.395	1.22
477.746	1.22
478.097	1.22
478.448	1.2
478.8	1.2
479.15	1.17
479.501	1.14
479.852	1.13
480.203	1.14
480.554	1.15
480.905	1.16
481.255	1.17
481.606	1.17
481.957	1.18
482.307	1.18
482.658	1.18
483.009	1.18
483.359	1.18
483.709	1.18
484.06	1.17
484.41	1.17
484.761	1.18
485.111	1.18
485.461	1.18
485.811	1.19
486.162	1.19
486.512	1.2
486.862	1.2
487.212	1.21
487.562	1.21
487.912	1.21
488.262	1.2
488.612	1.2
488.961	1.2
489.311	1.2
489.661	1.2
490.011	1.2
490.36	1.2
490.71	1.21
491.06	1.2
491.409	1.21
491.759	1.21
492.108	1.21
492.458	1.21
492.807	1.2
493.157	1.21
493.506	1.21
493.855	1.21
494.204	1.22
494.554	1.22
494.903	1.21
495.252	1.21
495.601	1.23
495.95	1.24
496.299	1.23
496.648	1.24
496.997	1.24
497.346	1.24
497.695	1.25
498.043	1.24
498.392	1.24
498.741	1.23
499.09	1.21
499.438	1.22
499.787	1.21
500.135	1.21
500.484	1.19
500.832	1.18
501.181	1.18
501.529	1.18
501.878	1.19
502.226	1.19
502.574	1.18
502.923	1.16
503.271	1.16
503.619	1.19
503.967	1.18
504.315	1.18
504.663	1.18
505.011	1.19
505.359	1.2
505.707	1.22
506.055	1.24
506.403	1.25
506.751	1.23
507.098	1.25
507.446	1.27
507.794	1.27
508.141	1.27
508.489	1.28
508.837	1.28
509.184	1.27
509.531	1.28
509.879	1.3
510.226	1.31
510.574	1.3
510.921	1.31
511.268	1.28
511.616	1.29
511.963	1.29
512.31	1.28
512.657	1.29
513.004	1.3
513.351	1.29
513.698	1.31
514.045	1.32
514.392	1.32
514.739	1.31
515.086	1.31
515.432	1.31
515.779	1.29
516.126	1.29
516.473	1.3
516.819	1.3
517.166	1.29
517.512	1.29
517.859	1.28
518.205	1.27
518.552	1.3
518.898	1.3
519.245	1.29
519.591	1.29
519.937	1.28
520.283	1.27
520.629	1.28
520.976	1.27
521.322	1.26
521.668	1.27
522.014	1.29
522.36	1.3
522.706	1.3
523.052	1.31
523.398	1.32
523.743	1.33
524.089	1.33
524.435	1.34
524.781	1.34
525.126	1.35
525.472	1.35
525.817	1.36
526.163	1.37
526.509	1.38
526.854	1.39
527.199	1.39
527.545	1.38
527.89	1.38
528.235	1.38
528.581	1.39
528.926	1.39
529.271	1.39
529.616	1.38
529.961	1.39
530.306	1.41
530.651	1.4
530.996	1.4
531.341	1.4
531.686	1.4
532.031	1.41
532.376	1.4
532.721	1.4
533.065	1.4
533.41	1.39
533.755	1.39
534.099	1.39
534.444	1.39
534.788	1.42
535.133	1.42
535.477	1.41
535.822	1.41
536.166	1.4
536.51	1.39
536.855	1.39
537.199	1.39
537.543	1.36
537.887	1.37
538.231	1.36
538.576	1.37
538.92	1.37
539.264	1.37
539.608	1.38
539.951	1.39
540.295	1.38
540.639	1.39
540.983	1.39
541.327	1.38
541.671	1.37
542.014	1.37
542.358	1.36
542.701	1.37
543.045	1.37
543.389	1.38
543.732	1.39
544.075	1.39
544.419	1.39
544.762	1.38
545.105	1.39
545.449	1.4
545.792	1.4
546.135	1.4
546.478	1.42
546.821	1.39
547.165	1.37
547.508	1.39
547.851	1.39
548.194	1.38
548.536	1.38
548.879	1.4
549.222	1.39
549.565	1.38
549.908	1.39
550.25	1.39
550.593	1.4
550.936	1.39
551.278	1.38
551.621	1.37
551.963	1.4
552.306	1.38
552.648	1.37
552.991	1.38
553.333	1.36
553.675	1.36
554.017	1.38
554.36	1.41
554.702	1.4
555.044	1.37
555.386	1.37
555.728	1.41
556.07	1.38
556.412	1.36
556.754	1.37
557.096	1.36
557.438	1.36
557.78	1.34
558.121	1.36
558.463	1.36
558.805	1.37
559.147	1.36
559.488	1.38
559.83	1.38
560.171	1.38
560.513	1.4
560.854	1.36
561.196	1.36
561.537	1.34
561.878	1.35
562.22	1.36
562.561	1.34
562.902	1.32
563.243	1.32
563.584	1.35
563.925	1.37
564.266	1.37
564.607	1.37
564.948	1.39
565.289	1.38
565.63	1.41
565.971	1.38
566.312	1.37
566.653	1.37
566.993	1.39
567.334	1.36
567.675	1.36
568.015	1.39
568.356	1.4
568.696	1.43
569.037	1.42
569.377	1.44
569.718	1.45
570.058	1.45
570.398	1.47
570.739	1.45
571.079	1.44
571.419	1.44
571.759	1.44
572.099	1.41
572.439	1.41
572.779	1.4
573.119	1.45
573.459	1.45
573.799	1.46
574.139	1.41
574.479	1.43
574.819	1.43
575.158	1.41
575.498	1.41
575.838	1.39
576.177	1.37
576.517	1.38
576.856	1.36
577.196	1.35
577.535	1.32
577.875	1.32
578.214	1.32
578.553	1.32
578.893	1.3
579.232	1.32
579.571	1.32
579.91	1.29
580.25	1.25
580.589	1.27
580.928	1.28
581.267	1.31
581.606	1.33
581.945	1.32
582.283	1.32
582.622	1.31
582.961	1.34
583.3	1.35
583.639	1.38
583.977	1.41
584.316	1.42
584.654	1.42
584.993	1.42
585.332	1.46
585.67	1.49
586.008	1.48
586.347	1.46
586.685	1.46
587.024	1.49
587.362	1.48
587.7	1.49
588.038	1.48
588.376	1.46
588.715	1.44
589.053	1.45
589.391	1.46
589.729	1.47
590.067	1.42
590.404	1.42
590.742	1.38
591.08	1.38
591.418	1.41
591.756	1.46
592.093	1.47
592.431	1.46
592.769	1.45
593.106	1.45
593.444	1.45
593.781	1.47
594.119	1.49
594.456	1.48
594.793	1.43
595.131	1.45
595.468	1.47
595.805	1.47
596.143	1.46
596.48	1.47
596.817	1.47
597.154	1.5
597.491	1.48
597.828	1.48
598.165	1.48
598.502	1.44
598.839	1.41
599.176	1.41
599.512	1.36
599.849	1.39
600.186	1.42
600.523	1.45
600.859	1.46
601.196	1.43
601.532	1.44
601.869	1.46
602.205	1.45
602.542	1.44
602.878	1.45
603.215	1.45
603.551	1.48
603.887	1.47
604.223	1.48
604.56	1.53
604.896	1.53
605.232	1.54
605.568	1.54
605.904	1.58
606.24	1.58
606.576	1.59
606.912	1.57
607.248	1.56
607.583	1.56
607.919	1.53
608.255	1.55
608.591	1.6
608.926	1.6
609.262	1.59
609.597	1.63
609.933	1.64
610.268	1.65
610.604	1.61
610.939	1.64
611.275	1.62
611.61	1.59
611.945	1.6
612.281	1.59
612.616	1.59
612.951	1.54
613.286	1.56
613.621	1.56
613.956	1.54
614.291	1.54
614.626	1.51
614.961	1.49
615.296	1.44
615.631	1.42
615.966	1.44
616.3	1.42
616.635	1.4
616.97	1.39
617.304	1.38
617.639	1.41
617.973	1.36
618.308	1.39
618.642	1.44
618.977	1.44
619.311	1.45
619.646	1.45
619.98	1.49
620.314	1.47
620.648	1.5
620.983	1.48
621.317	1.5
621.651	1.53
621.985	1.6
622.319	1.65
622.653	1.63
622.987	1.67
623.321	1.67
623.655	1.63
623.988	1.64
624.322	1.64
624.656	1.66
624.99	1.68
625.323	1.65
625.657	1.6
625.99	1.63
626.324	1.63
626.657	1.62
626.991	1.62
627.324	1.62
627.658	1.62
627.991	1.64
628.324	1.61
628.657	1.61
628.991	1.62
629.324	1.59
629.657	1.61
629.99	1.61
630.323	1.61
630.656	1.68
630.989	1.7
631.322	1.74
631.655	1.72
631.987	1.73
632.32	1.72
632.653	1.74
632.986	1.74
633.318	1.72
633.651	1.77
633.984	1.72
634.316	1.71
634.649	1.67
634.981	1.69
635.313	1.69
635.646	1.68
635.978	1.64
636.31	1.65
636.643	1.59
636.975	1.54
637.307	1.56
637.639	1.49
637.971	1.45
638.303	1.39
638.635	1.41
638.967	1.43
639.299	1.48
639.631	1.51
639.963	1.48
640.295	1.56
640.626	1.53
640.958	1.6
641.29	1.66
641.621	1.68
641.953	1.62
642.285	1.62
642.616	1.63
642.948	1.67
643.279	1.67
643.61	1.69
643.942	1.68
644.273	1.71
644.604	1.71
644.936	1.7
645.267	1.74
645.598	1.7
645.929	1.73
646.26	1.68
646.591	1.65
646.922	1.59
647.253	1.54
647.584	1.53
647.915	1.47
648.245	1.45
648.576	1.47
648.907	1.5
649.238	1.47
649.568	1.48
649.899	1.49
650.229	1.48
650.56	1.51
650.89	1.48
651.221	1.46
651.551	1.44
651.882	1.45
652.212	1.48
652.542	1.48
652.872	1.43
653.203	1.49
653.533	1.52
653.863	1.59
654.193	1.58
654.523	1.6
654.853	1.61
655.183	1.61
655.513	1.62
655.843	1.62
656.172	1.66
656.502	1.64
656.832	1.6
657.162	1.59
657.491	1.58
657.821	1.6
658.15	1.59
658.48	1.56
658.809	1.57
659.139	1.51
659.468	1.52
659.798	1.5
660.127	1.48
660.456	1.43
660.785	1.4
661.115	1.43
661.444	1.42
661.773	1.45
662.102	1.43
662.431	1.41
662.76	1.44
663.089	1.41
663.418	1.43
663.747	1.4
664.076	1.39
664.404	1.36
664.733	1.38
665.062	1.4
665.39	1.47
665.719	1.47
666.048	1.45
666.376	1.4
666.705	1.44
667.033	1.38
667.362	1.42
667.69	1.41
668.018	1.41
668.347	1.38
668.675	1.38
669.003	1.38
669.331	1.36
669.659	1.36
669.987	1.33
670.315	1.37
670.643	1.42
670.971	1.47
671.299	1.58
671.627	1.64
671.955	1.61
672.283	1.62
672.61	1.62
672.938	1.68
673.266	1.77
673.593	1.81
673.921	1.85
674.249	1.85
674.576	1.81
674.904	1.78
675.231	1.76
675.558	1.76
675.886	1.74
676.213	1.79
676.54	1.79
676.867	1.83
677.195	1.74
677.522	1.75
677.849	1.74
678.176	1.63
678.503	1.53
678.83	1.53
679.157	1.53
679.484	1.47
679.81	1.45
680.137	1.43
680.464	1.41
680.791	1.39
681.117	1.39
681.444	1.41
681.771	1.4
682.097	1.38
682.424	1.38
682.75	1.38
683.077	1.39
683.403	1.39
683.729	1.44
684.056	1.49
684.382	1.46
684.708	1.42
685.034	1.45
685.36	1.46
685.686	1.52
686.012	1.51
686.339	1.63
686.664	1.63
686.99	1.58
687.316	1.56
687.642	1.58
687.968	1.61
688.294	1.6
688.619	1.64
688.945	1.65
689.271	1.63
689.596	1.65
689.922	1.63
690.247	1.64
690.573	1.6
690.898	1.64
691.224	1.68
691.549	1.66
691.874	1.7
692.2	1.73
692.525	1.63
692.85	1.65
693.175	1.55
693.5	1.55
693.825	1.58
694.15	1.49
694.475	1.5
694.8	1.42
695.125	1.49
695.45	1.51
695.775	1.55
696.099	1.62
696.424	1.53
696.749	1.47
697.073	1.39
697.398	1.4
697.723	1.32
698.047	1.28
698.372	1.22
698.696	1.23
699.02	1.21
699.345	1.2
699.669	1.2
699.993	1.2
700.318	1.25
700.642	1.17
700.966	1.21
701.29	1.21
701.614	1.33
701.938	1.36
702.262	1.35
702.586	1.41
702.91	1.33
703.234	1.38
703.557	1.47
703.881	1.5
704.205	1.49
704.529	1.46
704.852	1.47
705.176	1.58
705.499	1.52
705.823	1.6
706.146	1.59
706.47	1.55
706.793	1.54
707.117	1.52
707.44	1.7
707.763	1.73
708.086	1.64
708.409	1.5
708.733	1.48
709.056	1.48
709.379	1.52
709.702	1.62
710.025	1.69
710.348	1.53
710.671	1.44
710.993	1.52
711.316	1.67
711.639	1.75
711.962	1.77
712.284	1.83
712.607	1.72
712.93	1.86
713.252	1.85
713.575	1.91
713.897	1.94
714.22	1.85
714.542	1.82
714.864	1.84
715.187	2.01
715.509	1.96
715.831	2.06
716.153	1.91
716.475	1.91
716.798	2
717.12	2.08
717.442	2.08
717.764	2.03
718.085	1.93
718.407	1.89
718.729	1.87
719.051	1.86
719.373	1.97
719.695	1.95
720.016	1.97
720.338	1.98
720.659	2.06
720.981	2.01
721.302	2.12
721.624	2.19
721.945	2
722.267	1.93
722.588	1.54
722.909	1.59
723.231	1.44
723.552	1.31
723.873	1.37
724.194	1.47
724.515	1.58
724.836	1.6
725.157	1.62
725.478	1.52
725.799	1.53
726.12	1.6
726.441	1.57
726.762	1.53
727.083	1.42
727.403	1.28
727.724	1.61
728.045	1.53
728.365	1.57
728.686	1.54
729.006	1.58
729.327	1.79
729.647	1.87
729.967	1.97
730.288	1.99
730.608	1.97
730.928	1.97
731.249	1.75
731.569	1.9
731.889	1.85
732.209	1.98
732.529	1.93
732.849	1.86
733.169	1.83
733.489	1.88
733.809	1.91
734.129	1.77
734.448	1.57
734.768	1.46
735.088	1.57
735.408	1.68
735.727	1.69
736.047	1.74
736.366	1.69
736.686	1.58
737.005	1.58
737.325	1.65
737.644	1.62
737.963	1.82
738.283	1.6
738.602	1.85
738.921	1.91
739.24	2.02
739.56	2.03
739.879	2.29
740.198	2.44
740.517	2.47
740.836	2.7
741.155	2.7
741.473	2.99
741.792	2.91
742.111	2.97
742.43	2.98
742.748	2.87
743.067	2.77
743.386	2.84
743.704	2.84
744.023	2.88
744.341	2.85
744.66	2.82
744.978	2.71
745.297	2.34
745.615	2.17
745.933	2.08
746.252	2.02
746.57	1.77
746.888	1.52
747.206	1.48
747.524	1.33
747.842	1.31
748.16	1.34
748.478	1.24
748.796	1.11
749.114	1.36
749.432	1.37
749.749	1.57
750.067	1.62
750.385	1.58
750.703	1.58
751.02	1.69
751.338	1.66
751.655	1.92
751.973	2.15
752.29	2.52
752.608	2.5
752.925	2.48
753.242	2.34
753.56	2.44
753.877	2.64
754.194	2.64
754.511	2.66
754.828	2.31
755.145	2.41
755.462	2.54
755.779	2.45
756.096	2.65
756.413	2.75
756.73	2.65
757.047	2.57
757.364	2.11
757.68	2.08
757.997	2.16
758.314	2.17
758.63	1.98
758.947	1.7
759.264	1.75
759.58	1.87
759.896	2.2
760.213	2.01
760.529	1.85
760.846	2.05
761.162	1.92
761.478	2.09
761.794	1.91
762.11	1.82
762.426	1.7
762.743	1.73
763.059	1.56
763.375	1.5
763.69	1.65
764.006	2.08
764.322	2.17
764.638	2.17
764.954	2.23
765.27	2.28
765.585	2.19
765.901	2.24
766.216	2.15
766.532	2.02
766.848	1.96
767.163	2.04
767.478	1.81
767.794	1.95
768.109	1.77
768.424	1.81
768.74	1.89
769.055	2.07
769.37	2.06
769.685	2.01
770	2.34
770.315	2.27
770.63	1.88
770.945	1.8
771.26	1.75
771.575	1.55
771.89	1.43
772.205	1.53
772.52	1.24
772.834	1.28
773.149	1.15
773.464	1.49
773.778	1.6
774.093	1.67
774.407	1.61
774.722	1.71
775.036	1.7
775.351	1.52
775.665	1.11
775.979	0.92
776.293	1.22
776.608	0.8
776.922	1.08
777.236	1.2
777.55	1.11
777.864	1.11
778.178	1.35
778.492	1.55
778.806	1.45
779.12	1.73
779.434	1.6
779.747	1.54
780.061	1.61
780.375	1.38
780.689	1.3
781.002	1.51
781.316	1.66
781.629	2.05
781.943	2.12
782.256	2.49
782.57	2.77
782.883	2.82
783.196	2.76
783.51	2.47
783.823	2.66
784.136	2.86
784.449	2.91
784.762	2.8
785.075	2.78
785.388	2.88
785.701	3.01
786.014	2.86
786.327	2.83
786.64	2.93
786.953	3.02
787.266	3
787.578	2.91
787.891	2.88
788.204	2.38
788.516	2.63
788.829	2.54
789.141	2.26
789.454	2.22
789.766	2.46
790.079	2.32
790.391	2.01
790.703	2.17
791.016	2.24
791.328	2.09
791.64	2.23
791.952	2.23
792.264	2.06
792.576	2.07
792.888	2.24
793.2	2.28
793.512	1.89
793.824	2.19
794.136	2.31
794.448	2.29
794.76	2.24
795.071	2.24
795.383	1.97
795.695	1.82
796.006	1.74
796.318	1.68
796.629	2.02
796.941	2.06
797.252	2.2
797.564	2.09
797.875	2.21
798.186	1.81
798.497	2.02
798.809	1.92
799.12	2.28
799.431	1.95
799.742	1.64
800.053	2.36
800.364	2.05
800.675	1.67
800.986	1.51
801.297	1.65
801.608	1.35
801.918	1.18
802.229	1.43
802.54	1.26
802.851	1.15
803.161	1.06
803.472	1.05
803.782	0.84
804.093	0.62
804.403	0.45
804.714	0.6
805.024	0.51
805.334	0.73
805.645	0.7
805.955	1.11
806.265	1.45
806.575	1.26
806.885	1.18
807.195	1.31
807.505	1.68
807.815	1.88
808.125	1.49
808.435	1.65
808.745	1.64
809.055	2.09
809.365	2.75
809.674	2.47
809.984	2.56
810.294	2.41
810.603	2.9
810.913	3.57
811.222	3.86
811.532	4.13
811.841	5.19
812.151	6.11
812.46	6.45
812.769	6.07
813.079	5.58
813.388	6.03
813.697	6.27
814.006	6.19
814.315	6.78
814.624	7.44
814.933	7.74
815.242	7.41
815.551	6.71
815.86	6.51
816.169	6.31
816.478	6.26
816.786	6.09
817.095	6.13
817.404	5.44
817.712	5.41
818.021	4.86
818.33	3.72
818.638	2.83
818.947	2.9
819.255	3.28
819.563	3.76
819.872	3.71
820.18	3.6
820.488	3.41
820.796	3.1
821.105	2.86
821.413	3.06
821.721	3.09
822.029	3.3
822.337	3.11
822.645	3.16
822.953	3.07
823.26	3.15
823.568	2.95
823.876	2.98
824.184	2.84
824.491	2.84
824.799	2.99
825.107	3
825.414	3.02
825.722	2.87
826.029	2.85
826.337	2.87
826.644	2.81
826.951	2.73
827.259	2.7
827.566	2.72
827.873	2.51
828.18	2.56
828.488	2.45
828.795	2.59
829.102	2.57
829.409	2.73
829.716	2.69
830.023	2.73
830.329	2.98
830.636	3.29
830.943	3.19
831.25	2.72
831.557	2.8
831.863	2.3
832.17	2.2
832.476	2.08
832.783	2.2
833.089	2.21
833.396	2.47
833.702	2.79
834.009	2.79
834.315	2.64
834.621	2.49
834.928	2.55
835.234	2.43
835.54	2.25
835.846	2.52
836.152	2.45
836.458	2.74
836.764	2.22
837.07	2.11
837.376	2.15
837.682	2.01
837.988	1.85
838.293	2.05
838.599	2.07
838.905	1.68
839.211	1.11
839.516	0.97
839.822	1.32
840.127	0.63
840.433	0.74
840.738	0.88
841.044	1.41
841.349	1.77
841.654	1.67
841.959	2.52
842.265	2.2
842.57	2.74
842.875	2.21
843.18	3.01
843.485	2.56
843.79	2.74
844.095	2.35
844.4	2.92
844.705	2.17
845.01	2.71
845.315	3.26
845.619	3.35
845.924	3.56
846.229	3.22
846.533	2.46
846.838	2.01
847.142	2.06
847.447	0.16
847.751	-2
848.056	-2.77
848.36	-4.23
848.664	-4.19
848.969	-4.37
849.273	-5.31
849.577	-7.12
849.881	-8.19
850.185	-7.6
850.489	-5.73
850.794	-5.86
851.097	-3.75
851.401	-3.94
851.705	-5.53
852.009	-4.5
852.313	-4.79
852.617	-5.12
852.92	-2.43
853.224	-1.46
853.528	0.08
853.831	0.58
854.135	1.45
854.438	1.82
854.742	1.89
855.045	1.29
855.349	0
855.652	0.7
855.955	2.38
856.259	0.75
856.562	-0.28
856.865	-0.91
857.168	-1.73
857.471	-2.25
857.774	-1.5
858.077	-0.05
858.38	0.07
858.683	0.19
858.986	0.59
859.289	0.79
859.592	1.75
859.894	-0.6
860.197	0.04
860.5	0.1
860.802	0.56
861.105	1.92
861.407	-0.38
861.71	-0.81
862.012	0
862.315	-1.99
862.617	1.65
862.919	2.15
863.222	3.34
863.524	3.97
863.826	4
864.128	2.83
864.43	2.56
864.732	1.86
865.034	2
865.336	-0.73
865.638	-4.4
865.94	-6.51
866.242	-7.78
866.544	-7.63
866.846	-6.81
867.147	-6.22
867.449	-7
867.751	-3.81
868.052	-2.32
868.354	-4.32
868.655	-4.23
868.957	-4.9
869.258	-4.33
869.56	-4.86
869.861	-6.24
870.162	-6.5
870.463	-6.43
870.765	-6.59
871.066	-6.47
871.367	-6.99
871.668	-7.42
871.969	-6.81
872.27	-8.33
872.571	-6.61
872.872	-5.92
873.173	-9.23
873.473	-9.95
873.774	-8.32
874.075	-9.53
874.376	-11.65
874.676	-8.61
874.977	-8.97
875.277	-8.69
875.578	-11.01
875.878	-12.15
876.179	-11.93
876.479	-12.34
876.78	-13.28
877.08	-14.33
877.38	-16.22
877.68	-17.21
877.981	-14
878.281	-11.26
878.581	-7.15
