Data from BU26842_Reflection_00014.txt Node
Date: Mon Nov 18 16:38:56 EST 2019
User: vgr7
Spectrometer: USB2G7710
Scans to average: 3
Trigger mode: 4
Integration Time (sec): 2.000000E-2
Electric dark correction enabled: true
Boxcar width: 10
XAxis mode: Wavelengths
Number of Pixels in Spectrum: 2048
>>>>>Begin Spectral Data<<<<<
177.721	-40.39
178.105	-60.27
178.488	-73.85
178.871	-62.83
179.254	-47.21
179.636	-270.57
180.019	-184.01
180.402	67.44
180.785	-183.35
181.168	-36.29
181.55	-47.31
181.933	496.36
182.316	-1810.34
182.698	-2189.26
183.081	-678.46
183.463	-91.6
183.846	-103.82
184.228	-68.91
184.611	-80.06
184.993	-83.23
185.376	-105.15
185.758	-190.58
186.14	505.86
186.522	334.73
186.904	531.47
187.287	4272.41
187.669	-81.58
188.051	-127.07
188.433	-112.72
188.815	-84.77
189.197	-92.9
189.579	-77.44
189.961	-76.68
190.342	-45.87
190.724	-25.83
191.106	-53.5
191.488	-56.22
191.869	-31.06
192.251	-44.62
192.633	-50.82
193.014	-48.32
193.396	-82.89
193.777	-77.98
194.159	-50.93
194.54	-49.4
194.922	-48.34
195.303	-57.41
195.684	-46.89
196.065	-32.05
196.447	-35.95
196.828	-53.74
197.209	-58.41
197.59	-58.11
197.971	-57.26
198.352	-56.69
198.733	-95.35
199.114	-46.85
199.495	-40.87
199.876	-46.1
200.257	-43.83
200.638	-24.81
201.018	-58.1
201.399	-29.12
201.78	-14.48
202.16	-29.79
202.541	-41.18
202.922	-66.07
203.302	-114.24
203.683	-153.75
204.063	-266.69
204.444	-179.36
204.824	-115.32
205.204	-94.19
205.585	-84.92
205.965	-72.36
206.345	-99.48
206.725	-106.18
207.106	-190.83
207.486	-251.72
207.866	-269.46
208.246	-208.1
208.626	-187.15
209.006	-118.89
209.386	-167.67
209.766	-190.93
210.145	-145.93
210.525	-116.98
210.905	-89.44
211.285	-57.07
211.664	-52.51
212.044	-39.86
212.424	-56.61
212.803	-67.03
213.183	-79.25
213.562	-71.54
213.942	-65.95
214.321	-51.83
214.701	-29.92
215.08	-28.56
215.459	-30.63
215.838	-32.34
216.218	-54.28
216.597	-54.58
216.976	-58.27
217.355	-59.48
217.734	-62.77
218.113	-60.6
218.492	-60.02
218.871	-68.05
219.25	-75.01
219.629	-80.49
220.008	-87.01
220.387	-74.67
220.766	-60.47
221.144	-54.55
221.523	-66.06
221.902	-79.56
222.28	-79.47
222.659	-83.09
223.037	-71.95
223.416	-83.01
223.794	-83.55
224.173	-59.49
224.551	-43.64
224.929	-35.1
225.308	-17.78
225.686	-13.15
226.064	-15.56
226.442	-12.75
226.821	-5.28
227.199	-1.97
227.577	-0.49
227.955	-0.24
228.333	-1.72
228.711	1.64
229.089	0.51
229.467	-0.3
229.845	0.97
230.222	0.01
230.6	-0.59
230.978	-0.28
231.356	3.12
231.733	4.88
232.111	4.44
232.488	3.57
232.866	4.6
233.243	1.28
233.621	0.97
233.998	2.08
234.376	0.39
234.753	-0.56
235.13	-1.03
235.508	-0.53
235.885	0.44
236.262	-0.59
236.639	-2.59
237.016	-2.63
237.393	-0.18
237.77	1.26
238.147	2
238.524	2.13
238.901	1.73
239.278	1.71
239.655	2.44
240.032	1.59
240.409	1.2
240.785	0.66
241.162	0.67
241.539	0.78
241.915	1.13
242.292	1.05
242.668	0.93
243.045	1.07
243.421	1.13
243.798	1.12
244.174	1.27
244.551	1.79
244.927	1.55
245.303	1.68
245.679	1.46
246.056	1.36
246.432	1.37
246.808	1.37
247.184	1.23
247.56	0.78
247.936	1.02
248.312	1.29
248.688	1.52
249.064	1.6
249.44	1.6
249.815	1.76
250.191	1.96
250.567	2.29
250.943	2.14
251.318	2.33
251.694	2.42
252.069	2.61
252.445	2.3
252.82	2.91
253.196	2.82
253.571	3.07
253.947	3.2
254.322	3.17
254.697	3.17
255.073	3.21
255.448	3.59
255.823	3.47
256.198	3.56
256.573	3.37
256.948	3.72
257.323	3.65
257.698	3.49
258.073	3.52
258.448	3.26
258.823	3.4
259.198	3.21
259.573	3.24
259.948	3.34
260.322	3.5
260.697	3.13
261.072	2.98
261.446	2.96
261.821	2.97
262.195	3.03
262.57	3.15
262.944	3.05
263.319	2.88
263.693	2.92
264.067	2.87
264.442	2.91
264.816	2.84
265.19	2.96
265.564	2.98
265.938	2.9
266.313	3.01
266.687	3.14
267.061	3.18
267.435	3.09
267.809	2.93
268.183	2.89
268.556	3.02
268.93	3
269.304	2.95
269.678	2.96
270.051	3.04
270.425	2.83
270.799	2.93
271.172	3.09
271.546	2.99
271.919	2.78
272.293	2.72
272.666	2.62
273.04	2.67
273.413	2.59
273.787	2.57
274.16	2.45
274.533	2.36
274.906	2.3
275.279	2.25
275.653	2.24
276.026	2.11
276.399	2.09
276.772	2.13
277.145	2.09
277.518	2.2
277.891	2.2
278.263	2.44
278.636	2.5
279.009	2.53
279.382	2.74
279.755	2.7
280.127	2.82
280.5	2.81
280.872	2.93
281.245	2.93
281.617	3.05
281.99	3.22
282.362	3.12
282.735	3.05
283.107	3.16
283.479	3.23
283.852	3.24
284.224	3.47
284.596	3.44
284.968	3.33
285.34	3.23
285.713	3.24
286.085	3.16
286.457	3.31
286.829	3.22
287.201	3.12
287.572	3.2
287.944	3.2
288.316	3.34
288.688	3.11
289.06	3.17
289.431	3.13
289.803	2.98
290.175	3.1
290.546	3.26
290.918	3.22
291.289	3.26
291.661	3.35
292.032	3.22
292.403	3.25
292.775	3.55
293.146	3.45
293.517	3.35
293.889	3.57
294.26	3.5
294.631	3.55
295.002	3.55
295.373	3.57
295.744	3.56
296.115	3.51
296.486	3.56
296.857	3.57
297.228	3.56
297.599	3.67
297.97	3.65
298.34	3.69
298.711	3.74
299.082	3.67
299.452	3.63
299.823	3.73
300.194	3.75
300.564	3.65
300.935	3.95
301.305	3.99
301.676	3.89
302.046	3.91
302.416	4.08
302.787	4.21
303.157	4.35
303.527	4.42
303.897	4.41
304.267	4.51
304.637	4.52
305.008	4.69
305.378	4.66
305.748	4.73
306.117	4.7
306.487	4.76
306.857	4.68
307.227	4.8
307.597	4.81
307.967	5
308.336	4.96
308.706	4.85
309.076	4.94
309.445	4.97
309.815	4.92
310.184	4.96
310.554	4.94
310.923	4.9
311.293	4.93
311.662	4.96
312.031	4.92
312.401	5.1
312.77	5.08
313.139	5.26
313.508	5.28
313.877	5.33
314.246	5.32
314.616	5.57
314.985	5.43
315.353	5.55
315.722	5.49
316.091	5.52
316.46	5.49
316.829	5.47
317.198	5.65
317.567	5.72
317.935	5.63
318.304	5.7
318.672	5.6
319.041	5.65
319.41	5.77
319.778	5.96
320.147	5.98
320.515	5.91
320.883	5.7
321.252	5.9
321.62	5.86
321.988	5.98
322.357	5.95
322.725	6.1
323.093	6.11
323.461	6.17
323.829	6.38
324.197	6.45
324.565	6.58
324.933	6.39
325.301	6.54
325.669	6.56
326.037	6.55
326.405	6.67
326.772	6.78
327.14	6.75
327.508	6.72
327.875	6.58
328.243	6.78
328.61	6.81
328.978	6.71
329.346	6.95
329.713	6.92
330.08	6.96
330.448	6.95
330.815	6.88
331.182	7
331.55	6.91
331.917	6.93
332.284	6.92
332.651	7.02
333.018	7.02
333.385	7.14
333.752	7.07
334.119	7.25
334.486	7.18
334.853	7.29
335.22	7.24
335.587	7.4
335.954	7.39
336.32	7.62
336.687	7.67
337.054	7.67
337.42	7.71
337.787	7.73
338.153	7.82
338.52	7.92
338.886	7.8
339.253	7.79
339.619	7.92
339.986	7.99
340.352	8.04
340.718	8.08
341.084	8.12
341.451	8.27
341.817	8.17
342.183	8.2
342.549	8.19
342.915	8.3
343.281	8.26
343.647	8.2
344.013	8.17
344.379	8.1
344.745	8.07
345.11	8.23
345.476	8.24
345.842	8.22
346.208	8.24
346.573	8.3
346.939	8.44
347.304	8.35
347.67	8.24
348.035	8.22
348.401	8.15
348.766	8.12
349.132	8.08
349.497	8.1
349.862	8.06
350.228	8.04
350.593	7.98
350.958	7.99
351.323	8.05
351.688	8.06
352.053	8.09
352.418	8.04
352.783	7.97
353.148	7.91
353.513	8
353.878	7.98
354.243	7.97
354.608	7.92
354.972	7.99
355.337	8.06
355.702	8.14
356.066	8.2
356.431	8.17
356.795	8.22
357.16	8.19
357.524	8.13
357.889	8.12
358.253	8.18
358.618	8.23
358.982	8.11
359.346	8.07
359.71	8.1
360.075	8.07
360.439	8.07
360.803	8.08
361.167	7.97
361.531	7.88
361.895	7.85
362.259	7.78
362.623	7.79
362.987	7.76
363.351	7.64
363.714	7.59
364.078	7.51
364.442	7.39
364.806	7.4
365.169	7.44
365.533	7.44
365.896	7.38
366.26	7.31
366.623	7.32
366.987	7.32
367.35	7.26
367.714	7.25
368.077	7.16
368.44	7.12
368.803	7.19
369.167	7.16
369.53	7.18
369.893	7.13
370.256	7.06
370.619	7.05
370.982	7.02
371.345	6.93
371.708	6.93
372.071	6.95
372.434	6.84
372.797	6.77
373.159	6.66
373.522	6.65
373.885	6.6
374.247	6.58
374.61	6.53
374.973	6.49
375.335	6.5
375.698	6.41
376.06	6.34
376.423	6.24
376.785	6.21
377.147	6.22
377.51	6.19
377.872	6.17
378.234	6.13
378.596	6.07
378.958	6.03
379.321	5.96
379.683	5.9
380.045	5.89
380.407	5.9
380.769	5.89
381.13	5.82
381.492	5.77
381.854	5.76
382.216	5.68
382.578	5.67
382.939	5.58
383.301	5.57
383.663	5.54
384.024	5.47
384.386	5.51
384.747	5.43
385.109	5.4
385.47	5.34
385.832	5.3
386.193	5.33
386.554	5.35
386.916	5.32
387.277	5.26
387.638	5.26
387.999	5.22
388.36	5.21
388.721	5.18
389.082	5.13
389.443	5.05
389.804	5.05
390.165	4.99
390.526	4.98
390.887	4.94
391.248	4.98
391.609	4.94
391.969	4.87
392.33	4.82
392.691	4.8
393.051	4.78
393.412	4.77
393.772	4.69
394.133	4.66
394.493	4.67
394.854	4.68
395.214	4.65
395.574	4.62
395.935	4.59
396.295	4.58
396.655	4.55
397.015	4.5
397.376	4.45
397.736	4.41
398.096	4.38
398.456	4.36
398.816	4.36
399.176	4.32
399.535	4.29
399.895	4.28
400.255	4.23
400.615	4.19
400.975	4.13
401.334	4.09
401.694	4.07
402.054	4.04
402.413	4.03
402.773	3.98
403.132	3.92
403.492	3.93
403.851	3.9
404.211	3.92
404.57	3.91
404.929	3.93
405.288	3.95
405.648	3.92
406.007	3.93
406.366	3.87
406.725	3.91
407.084	3.91
407.443	3.88
407.802	3.91
408.161	3.93
408.52	3.92
408.879	3.95
409.238	3.97
409.596	3.96
409.955	3.91
410.314	3.95
410.673	3.97
411.031	3.92
411.39	3.93
411.748	3.91
412.107	3.94
412.465	3.89
412.824	3.89
413.182	3.87
413.54	3.85
413.899	3.84
414.257	3.81
414.615	3.74
414.974	3.75
415.332	3.72
415.69	3.66
416.048	3.64
416.406	3.63
416.764	3.58
417.122	3.57
417.48	3.56
417.838	3.55
418.195	3.53
418.553	3.54
418.911	3.51
419.269	3.51
419.626	3.48
419.984	3.48
420.342	3.45
420.699	3.43
421.057	3.42
421.414	3.43
421.772	3.42
422.129	3.44
422.486	3.43
422.844	3.42
423.201	3.41
423.558	3.42
423.915	3.42
424.273	3.43
424.63	3.41
424.987	3.43
425.344	3.41
425.701	3.39
426.058	3.36
426.415	3.36
426.772	3.34
427.128	3.34
427.485	3.34
427.842	3.34
428.199	3.35
428.555	3.35
428.912	3.32
429.269	3.3
429.625	3.3
429.982	3.3
430.338	3.3
430.695	3.29
431.051	3.28
431.407	3.27
431.764	3.27
432.12	3.26
432.476	3.25
432.832	3.23
433.189	3.27
433.545	3.29
433.901	3.29
434.257	3.28
434.613	3.29
434.969	3.28
435.325	3.3
435.681	3.29
436.036	3.3
436.392	3.32
436.748	3.31
437.104	3.31
437.459	3.29
437.815	3.28
438.171	3.3
438.526	3.33
438.882	3.33
439.237	3.33
439.593	3.34
439.948	3.34
440.304	3.35
440.659	3.36
441.014	3.35
441.369	3.34
441.725	3.34
442.08	3.35
442.435	3.34
442.79	3.33
443.145	3.32
443.5	3.31
443.855	3.29
444.21	3.29
444.565	3.29
444.92	3.31
445.275	3.31
445.629	3.3
445.984	3.27
446.339	3.26
446.693	3.25
447.048	3.23
447.403	3.21
447.757	3.19
448.112	3.17
448.466	3.15
448.82	3.16
449.175	3.17
449.529	3.15
449.883	3.14
450.238	3.14
450.592	3.15
450.946	3.13
451.3	3.14
451.654	3.13
452.008	3.13
452.362	3.08
452.716	3.07
453.07	3.09
453.424	3.08
453.778	3.1
454.132	3.11
454.486	3.11
454.839	3.13
455.193	3.12
455.547	3.14
455.9	3.15
456.254	3.16
456.607	3.15
456.961	3.13
457.314	3.14
457.668	3.15
458.021	3.13
458.375	3.14
458.728	3.15
459.081	3.17
459.434	3.17
459.787	3.19
460.141	3.19
460.494	3.18
460.847	3.18
461.2	3.16
461.553	3.17
461.906	3.18
462.259	3.19
462.611	3.2
462.964	3.19
463.317	3.2
463.67	3.2
464.022	3.2
464.375	3.21
464.728	3.23
465.08	3.22
465.433	3.23
465.785	3.23
466.138	3.24
466.49	3.24
466.843	3.23
467.195	3.25
467.547	3.28
467.899	3.29
468.252	3.3
468.604	3.31
468.956	3.3
469.308	3.31
469.66	3.29
470.012	3.3
470.364	3.31
470.716	3.32
471.068	3.33
471.42	3.34
471.772	3.37
472.123	3.38
472.475	3.39
472.827	3.42
473.178	3.41
473.53	3.4
473.882	3.38
474.233	3.4
474.585	3.41
474.936	3.39
475.288	3.38
475.639	3.4
475.99	3.4
476.342	3.41
476.693	3.43
477.044	3.45
477.395	3.44
477.746	3.42
478.097	3.39
478.448	3.37
478.8	3.37
479.15	3.34
479.501	3.32
479.852	3.31
480.203	3.29
480.554	3.3
480.905	3.31
481.255	3.31
481.606	3.32
481.957	3.31
482.307	3.31
482.658	3.31
483.009	3.3
483.359	3.3
483.709	3.3
484.06	3.29
484.41	3.29
484.761	3.29
485.111	3.3
485.461	3.31
485.811	3.31
486.162	3.3
486.512	3.32
486.862	3.33
487.212	3.34
487.562	3.35
487.912	3.35
488.262	3.35
488.612	3.36
488.961	3.35
489.311	3.36
489.661	3.37
490.011	3.39
490.36	3.39
490.71	3.4
491.06	3.4
491.409	3.41
491.759	3.42
492.108	3.44
492.458	3.44
492.807	3.45
493.157	3.48
493.506	3.51
493.855	3.53
494.204	3.53
494.554	3.55
494.903	3.57
495.252	3.59
495.601	3.63
495.95	3.64
496.299	3.67
496.648	3.69
496.997	3.72
497.346	3.75
497.695	3.78
498.043	3.81
498.392	3.85
498.741	3.89
499.09	3.9
499.438	3.96
499.787	4
500.135	4.04
500.484	4.07
500.832	4.12
501.181	4.15
501.529	4.21
501.878	4.29
502.226	4.35
502.574	4.4
502.923	4.45
503.271	4.53
503.619	4.63
503.967	4.71
504.315	4.78
504.663	4.84
505.011	4.92
505.359	5.01
505.707	5.12
506.055	5.2
506.403	5.33
506.751	5.41
507.098	5.54
507.446	5.68
507.794	5.77
508.141	5.85
508.489	5.97
508.837	6.07
509.184	6.16
509.531	6.27
509.879	6.42
510.226	6.55
510.574	6.68
510.921	6.78
511.268	6.9
511.616	7
511.963	7.14
512.31	7.28
512.657	7.44
513.004	7.56
513.351	7.7
513.698	7.84
514.045	8
514.392	8.12
514.739	8.24
515.086	8.42
515.432	8.56
515.779	8.7
516.126	8.85
516.473	8.99
516.819	9.14
517.166	9.25
517.512	9.35
517.859	9.46
518.205	9.59
518.552	9.72
518.898	9.87
519.245	9.99
519.591	10.08
519.937	10.19
520.283	10.32
520.629	10.45
520.976	10.57
521.322	10.7
521.668	10.83
522.014	10.97
522.36	11.13
522.706	11.31
523.052	11.48
523.398	11.65
523.743	11.85
524.089	12.02
524.435	12.18
524.781	12.37
525.126	12.53
525.472	12.66
525.817	12.78
526.163	12.89
526.509	13
526.854	13.12
527.199	13.22
527.545	13.33
527.89	13.43
528.235	13.54
528.581	13.67
528.926	13.79
529.271	13.92
529.616	14.03
529.961	14.14
530.306	14.26
530.651	14.39
530.996	14.51
531.341	14.66
531.686	14.82
532.031	14.97
532.376	15.12
532.721	15.28
533.065	15.47
533.41	15.65
533.755	15.84
534.099	16.02
534.444	16.23
534.788	16.41
535.133	16.61
535.477	16.81
535.822	17.01
536.166	17.22
536.51	17.44
536.855	17.68
537.199	17.96
537.543	18.22
537.887	18.46
538.231	18.71
538.576	18.99
538.92	19.25
539.264	19.52
539.608	19.79
539.951	20
540.295	20.21
540.639	20.45
540.983	20.69
541.327	20.92
541.671	21.12
542.014	21.33
542.358	21.56
542.701	21.78
543.045	21.98
543.389	22.24
543.732	22.48
544.075	22.69
544.419	22.87
544.762	23.14
545.105	23.42
545.449	23.72
545.792	23.94
546.135	24.18
546.478	24.44
546.821	24.72
547.165	25.04
547.508	25.35
547.851	25.63
548.194	25.88
548.536	26.19
548.879	26.48
549.222	26.77
549.565	27.05
549.908	27.34
550.25	27.66
550.593	27.94
550.936	28.22
551.278	28.53
551.621	28.86
551.963	29.15
552.306	29.42
552.648	29.66
552.991	29.96
553.333	30.31
553.675	30.54
554.017	30.82
554.36	31.05
554.702	31.32
555.044	31.6
555.386	31.89
555.728	32.09
556.07	32.39
556.412	32.64
556.754	32.84
557.096	33.1
557.438	33.29
557.78	33.53
558.121	33.74
558.463	34.01
558.805	34.22
559.147	34.41
559.488	34.64
559.83	34.86
560.171	35.09
560.513	35.29
560.854	35.58
561.196	35.74
561.537	35.98
561.878	36.12
562.22	36.29
562.561	36.44
562.902	36.64
563.243	36.84
563.584	37.05
563.925	37.25
564.266	37.4
564.607	37.61
564.948	37.7
565.289	37.94
565.63	38.11
565.971	38.27
566.312	38.43
566.653	38.6
566.993	38.77
567.334	38.9
567.675	39.06
568.015	39.22
568.356	39.41
568.696	39.6
569.037	39.74
569.377	39.9
569.718	40.02
570.058	40.11
570.398	40.22
570.739	40.34
571.079	40.46
571.419	40.59
571.759	40.73
572.099	40.84
572.439	40.94
572.779	41
573.119	41.16
573.459	41.31
573.799	41.41
574.139	41.49
574.479	41.56
574.819	41.64
575.158	41.69
575.498	41.77
575.838	41.83
576.177	41.88
576.517	41.94
576.856	42.06
577.196	42.25
577.535	42.33
577.875	42.42
578.214	42.58
578.553	42.73
578.893	42.84
579.232	43
579.571	43.1
579.91	43.21
580.25	43.22
580.589	43.27
580.928	43.37
581.267	43.46
581.606	43.62
581.945	43.65
582.283	43.69
582.622	43.73
582.961	43.76
583.3	43.98
583.639	44.1
583.977	44.25
584.316	44.26
584.654	44.38
584.993	44.42
585.332	44.48
585.67	44.48
586.008	44.51
586.347	44.56
586.685	44.6
587.024	44.66
587.362	44.76
587.7	44.81
588.038	44.86
588.376	44.91
588.715	45.01
589.053	45.09
589.391	45.19
589.729	45.24
590.067	45.34
590.404	45.36
590.742	45.46
591.08	45.42
591.418	45.52
591.756	45.55
592.093	45.63
592.431	45.7
592.769	45.8
593.106	45.81
593.444	45.84
593.781	45.83
594.119	45.9
594.456	45.89
594.793	45.96
595.131	46.01
595.468	46.08
595.805	46.08
596.143	46.13
596.48	46.17
596.817	46.2
597.154	46.22
597.491	46.26
597.828	46.3
598.165	46.36
598.502	46.41
598.839	46.5
599.176	46.62
599.512	46.59
599.849	46.59
600.186	46.61
600.523	46.68
600.859	46.8
601.196	46.86
601.532	46.96
601.869	46.95
602.205	46.98
602.542	47.03
602.878	47.05
603.215	47.07
603.551	47.12
603.887	47.22
604.223	47.22
604.56	47.25
604.896	47.26
605.232	47.36
605.568	47.34
605.904	47.33
606.24	47.33
606.576	47.39
606.912	47.42
607.248	47.48
607.583	47.53
607.919	47.57
608.255	47.55
608.591	47.6
608.926	47.62
609.262	47.63
609.597	47.67
609.933	47.7
610.268	47.78
610.604	47.88
610.939	47.88
611.275	47.99
611.61	48.06
611.945	48.07
612.281	47.99
612.616	48.09
612.951	48.06
613.286	48.07
613.621	48.02
613.956	48.07
614.291	48.11
614.626	48.14
614.961	48.13
615.296	48.2
615.631	48.17
615.966	48.27
616.3	48.23
616.635	48.14
616.97	48.19
617.304	48.09
617.639	47.93
617.973	47.95
618.308	47.93
618.642	47.88
618.977	47.93
619.311	47.99
619.646	47.95
619.98	47.97
620.314	48.02
620.648	48.12
620.983	48.1
621.317	48.1
621.651	48.14
621.985	48.15
622.319	48.17
622.653	48.2
622.987	48.23
623.321	48.31
623.655	48.42
623.988	48.39
624.322	48.48
624.656	48.6
624.99	48.59
625.323	48.58
625.657	48.61
625.99	48.68
626.324	48.78
626.657	48.84
626.991	48.93
627.324	48.88
627.658	48.87
627.991	49
628.324	49.14
628.657	49.18
628.991	49.17
629.324	49.16
629.657	49.22
629.99	49.25
630.323	49.34
630.656	49.36
630.989	49.42
631.322	49.45
631.655	49.41
631.987	49.46
632.32	49.51
632.653	49.52
632.986	49.49
633.318	49.4
633.651	49.39
633.984	49.26
634.316	49.32
634.649	49.37
634.981	49.28
635.313	49.08
635.646	49.01
635.978	49.07
636.31	49.09
636.643	49.08
636.975	49.07
637.307	48.95
637.639	48.92
637.971	48.96
638.303	48.99
638.635	49.05
638.967	49.07
639.299	49.07
639.631	49.1
639.963	49.13
640.295	49.27
640.626	49.27
640.958	49.39
641.29	49.42
641.621	49.45
641.953	49.5
642.285	49.68
642.616	49.7
642.948	49.65
643.279	49.63
643.61	49.61
643.942	49.61
644.273	49.67
644.604	49.74
644.936	49.74
645.267	49.72
645.598	49.7
645.929	49.68
646.26	49.73
646.591	49.82
646.922	49.74
647.253	49.68
647.584	49.71
647.915	49.66
648.245	49.65
648.576	49.68
648.907	49.78
649.238	49.71
649.568	49.72
649.899	49.79
650.229	49.73
650.56	49.79
650.89	49.9
651.221	49.97
651.551	50.02
651.882	49.99
652.212	49.96
652.542	49.91
652.872	49.95
653.203	49.85
653.533	49.82
653.863	49.84
654.193	49.86
654.523	49.9
654.853	50.01
655.183	50.04
655.513	49.94
655.843	49.93
656.172	50.03
656.502	50.08
656.832	50.14
657.162	50.26
657.491	50.21
657.821	50.12
658.15	50.08
658.48	50.05
658.809	50.04
659.139	50.17
659.468	50.22
659.798	50.27
660.127	50.36
660.456	50.37
660.785	50.38
661.115	50.36
661.444	50.38
661.773	50.35
662.102	50.39
662.431	50.47
662.76	50.32
663.089	50.14
663.418	50.11
663.747	50.05
664.076	50.09
664.404	50.14
664.733	50.11
665.062	50.16
665.39	50.11
665.719	50.12
666.048	50.06
666.376	50.17
666.705	50.07
667.033	50.05
667.362	49.88
667.69	49.93
668.018	49.95
668.347	49.97
668.675	49.91
669.003	49.88
669.331	49.92
669.659	49.94
669.987	50.06
670.315	50
670.643	50.02
670.971	49.91
671.299	50.01
671.627	50.01
671.955	49.96
672.283	49.97
672.61	50.06
672.938	50.09
673.266	49.97
673.593	49.91
673.921	49.93
674.249	50.08
674.576	50.01
674.904	49.91
675.231	49.99
675.558	49.97
675.886	49.96
676.213	50.02
676.54	50.1
676.867	50.15
677.195	50.14
677.522	50.11
677.849	50.17
678.176	50
678.503	50.16
678.83	50.28
679.157	50.19
679.484	50.18
679.81	50.17
680.137	50.14
680.464	50.22
680.791	50.24
681.117	50.32
681.444	50.4
681.771	50.45
682.097	50.43
682.424	50.41
682.75	50.4
683.077	50.38
683.403	50.43
683.729	50.36
684.056	50.59
684.382	50.64
684.708	50.69
685.034	50.64
685.36	50.56
685.686	50.54
686.012	50.61
686.339	50.57
686.664	50.66
686.99	50.64
687.316	50.61
687.642	50.4
687.968	50.28
688.294	50.25
688.619	50.31
688.945	50.25
689.271	50.27
689.596	50.18
689.922	50.25
690.247	50.21
690.573	50.17
690.898	49.94
691.224	49.86
691.549	49.9
691.874	49.87
692.2	49.71
692.525	49.61
692.85	49.77
693.175	49.8
693.5	49.71
693.825	49.76
694.15	49.75
694.475	50.04
694.8	50.05
695.125	50.05
695.45	49.98
695.775	49.99
696.099	50.09
696.424	50.37
696.749	50.29
697.073	50.1
697.398	50.17
697.723	50.19
698.047	50.37
698.372	50.4
698.696	50.57
699.02	50.66
699.345	50.69
699.669	50.55
699.993	50.37
700.318	50.28
700.642	50.33
700.966	50.44
701.29	50.41
701.614	50.43
701.938	50.56
702.262	50.64
702.586	50.61
702.91	50.6
703.234	50.47
703.557	50.56
703.881	50.73
704.205	50.74
704.529	50.83
704.852	50.58
705.176	50.43
705.499	50.42
705.823	50.35
706.146	50.35
706.47	50.4
706.793	50.64
707.117	50.65
707.44	50.52
707.763	50.57
708.086	50.41
708.409	50.45
708.733	50.21
709.056	50.18
709.379	50.36
709.702	50.38
710.025	50.36
710.348	50.21
710.671	50.12
710.993	50.22
711.316	50.2
711.639	50.27
711.962	50.36
712.284	50.34
712.607	50.49
712.93	50.29
713.252	50.18
713.575	50.16
713.897	50.19
714.22	50.42
714.542	50.35
714.864	50.49
715.187	50.58
715.509	50.65
715.831	50.62
716.153	50.35
716.475	50.31
716.798	50.28
717.12	50.44
717.442	50.62
717.764	50.66
718.085	50.52
718.407	50.63
718.729	50.58
719.051	50.34
719.373	50.21
719.695	50.48
720.016	50.77
720.338	50.87
720.659	50.96
720.981	50.85
721.302	50.72
721.624	50.56
721.945	50.21
722.267	50.2
722.588	50.01
722.909	50.25
723.231	50.38
723.552	50.49
723.873	50.38
724.194	50.46
724.515	50.33
724.836	50.36
725.157	50.55
725.478	50.49
725.799	50.92
726.12	50.7
726.441	50.51
726.762	50.32
727.083	50.21
727.403	50.12
727.724	50.14
728.045	50.41
728.365	50.36
728.686	50.56
729.006	50.57
729.327	50.82
729.647	50.93
729.967	50.78
730.288	50.57
730.608	50.54
730.928	50.35
731.249	50.33
731.569	50.59
731.889	50.43
732.209	50.46
732.529	50.41
732.849	50.74
733.169	50.76
733.489	50.87
733.809	51.06
734.129	51.11
734.448	51.14
734.768	50.99
735.088	51.16
735.408	51.1
735.727	50.89
736.047	50.89
736.366	50.65
736.686	50.7
737.005	50.85
737.325	50.93
737.644	50.88
737.963	51.04
738.283	50.75
738.602	50.79
738.921	50.89
739.24	50.68
739.56	50.74
739.879	51.11
740.198	51.16
740.517	51.01
740.836	51.13
741.155	51.04
741.473	51.09
741.792	51.01
742.111	51.04
742.43	51.37
742.748	51.29
743.067	51.45
743.386	51.7
743.704	51.7
744.023	51.58
744.341	51.6
744.66	51.51
744.978	51.76
745.297	51.88
745.615	51.92
745.933	52.26
746.252	51.92
746.57	51.39
746.888	51.23
747.206	51.23
747.524	51.3
747.842	51.42
748.16	51.58
748.478	51.7
748.796	51.64
749.114	51.58
749.432	51.51
749.749	51.41
750.067	51.13
750.385	51.04
750.703	51.24
751.02	51.42
751.338	51.2
751.655	51.25
751.973	50.93
752.29	50.6
752.608	50.35
752.925	50.42
753.242	50.49
753.56	50.27
753.877	50.2
754.194	49.99
754.511	49.97
754.828	49.76
755.145	49.54
755.462	49.45
755.779	49.58
756.096	49.77
756.413	49.99
756.73	49.74
757.047	49.73
757.364	49.39
757.68	49.34
757.997	49.6
758.314	49.37
758.63	49.71
758.947	50.12
759.264	50.18
759.58	50.45
759.896	50.54
760.213	50.56
760.529	50.59
760.846	50.78
761.162	50.67
761.478	50.61
761.794	50.63
762.11	50.72
762.426	50.64
762.743	50.46
763.059	50.32
763.375	50.7
763.69	50.85
764.006	50.98
764.322	50.89
764.638	51
764.954	51.24
765.27	51
765.585	50.94
765.901	51.13
766.216	50.9
766.532	51.07
766.848	51.31
767.163	51.47
767.478	51.2
767.794	51.2
768.109	51.36
768.424	51.48
768.74	51.54
769.055	51.55
769.37	51.21
769.685	51.13
770	51.33
770.315	51.08
770.63	50.95
770.945	51.04
771.26	50.75
771.575	50.31
771.89	50.42
772.205	50.47
772.52	50.18
772.834	50.68
773.149	50.73
773.464	50.69
773.778	50.7
774.093	50.86
774.407	50.93
774.722	50.74
775.036	50.79
775.351	50.93
775.665	50.63
775.979	51.14
776.293	51.04
776.608	50.72
776.922	50.84
777.236	50.78
777.55	50.42
777.864	50.33
778.178	50.61
778.492	50.8
778.806	50.48
779.12	50.42
779.434	50.32
779.747	50.11
780.061	50.17
780.375	49.91
780.689	49.62
781.002	50.19
781.316	50.71
781.629	50.85
781.943	50.6
782.256	51.03
782.57	51.11
782.883	51.2
783.196	51.33
783.51	51.05
783.823	51.44
784.136	51.87
784.449	51.93
784.762	51.64
785.075	51.9
785.388	52.33
785.701	52.15
786.014	52.07
786.327	52.07
786.64	51.93
786.953	52.47
787.266	52.68
787.578	52.39
787.891	51.92
788.204	51.77
788.516	52.23
788.829	52.11
789.141	52.18
789.454	52.63
789.766	52.21
790.079	52.59
790.391	52.48
790.703	52.5
791.016	52.53
791.328	52.85
791.64	52.45
791.952	51.82
792.264	52.25
792.576	51.97
792.888	52.35
793.2	52.4
793.512	51.71
793.824	52.06
794.136	51.99
794.448	52.05
794.76	51.49
795.071	51.03
795.383	50.73
795.695	50.65
796.006	50.24
796.318	50.27
796.629	49.71
796.941	49.28
797.252	49.52
797.564	49.77
797.875	49.85
798.186	49.5
798.497	50.24
798.809	49.56
799.12	49.45
799.431	48.97
799.742	49.22
800.053	49.15
800.364	48.86
800.675	48.37
800.986	48.3
801.297	48.65
801.608	48.69
801.918	48.88
802.229	48.87
802.54	48.1
802.851	48.52
803.161	48.77
803.472	48.7
803.782	48.43
804.093	47.83
804.403	47.23
804.714	47.84
805.024	47.24
805.334	47.55
805.645	47.84
805.955	48
806.265	47.29
806.575	47.07
806.885	47.19
807.195	47.52
807.505	47.13
807.815	47.42
808.125	47.65
808.435	47.9
808.745	48.07
809.055	49.45
809.365	48.56
809.674	48.68
809.984	49.08
810.294	48.46
810.603	49.1
810.913	49.49
811.222	48.49
811.532	48.72
811.841	49.63
812.151	49.47
812.46	48.94
812.769	48.77
813.079	49.47
813.388	49.36
813.697	48.92
814.006	48.26
814.315	48
814.624	46.83
814.933	46.71
815.242	46.24
815.551	45.76
815.86	46.24
816.169	46.15
816.478	46.52
816.786	47.63
817.095	47.77
817.404	48.16
817.712	48.64
818.021	48.15
818.33	47.57
818.638	47.8
818.947	47.97
819.255	48.85
819.563	49
819.872	49.38
820.18	49.69
820.488	50.32
820.796	50.33
821.105	50.71
821.413	50.85
821.721	50.88
822.029	50.76
822.337	50.71
822.645	50.75
822.953	50.56
823.26	50.56
823.568	50.45
823.876	50.45
824.184	50.37
824.491	50.46
824.799	50.61
825.107	50.37
825.414	50.39
825.722	50.45
826.029	50.43
826.337	50.37
826.644	50.5
826.951	50.32
827.259	50.53
827.566	50.43
827.873	50.21
828.18	50.2
828.488	50.15
828.795	50.02
829.102	49.72
829.409	49.98
829.716	49.63
830.023	49.92
830.329	49.54
830.636	50.3
830.943	50.3
831.25	49.73
831.557	50.24
831.863	50.37
832.17	49.44
832.476	49.34
832.783	48.96
833.089	48.76
833.396	48.84
833.702	48.49
834.009	48.39
834.315	48.68
834.621	48.77
834.928	48.63
835.234	48.97
835.54	49.11
835.846	49.07
836.152	49.09
836.458	48.63
836.764	48.55
837.07	47.5
837.376	47.43
837.682	48.09
837.988	48.02
838.293	47.75
838.599	48.47
838.905	48.29
839.211	48.92
839.516	48.27
839.822	48.06
840.127	47.85
840.433	47.62
840.738	46.93
841.044	45.96
841.349	46.65
841.654	46.55
841.959	46.88
842.265	45.99
842.57	45.95
842.875	44.91
843.18	45.13
843.485	44.95
843.79	45.3
844.095	45.07
844.4	44.62
844.705	44.44
845.01	44.09
845.315	43.73
845.619	41.56
845.924	41.74
846.229	42.1
846.533	42.35
846.838	42.75
847.142	42.4
847.447	42.85
847.751	43.31
848.056	42.99
848.36	43.52
848.664	45.58
848.969	46.13
849.273	46.81
849.577	46.26
849.881	46.39
850.185	45.66
850.489	44.29
850.794	43.87
851.097	45.61
851.401	45.81
851.705	46.34
852.009	48.3
852.313	48.46
852.617	47.51
852.92	48.43
853.224	48.58
853.528	50.24
853.831	50.49
854.135	49.22
854.438	47.78
854.742	47.75
855.045	43.12
855.349	41.75
855.652	43.62
855.955	45.28
856.259	45.52
856.562	46.62
856.865	46.62
857.168	46.63
857.471	45.28
857.774	43.68
858.077	43.13
858.38	41.93
858.683	41.89
858.986	43.08
859.289	41.65
859.592	41.75
859.894	41.59
860.197	40.83
860.5	42.04
860.802	41.26
861.105	41.58
861.407	44.02
861.71	45.02
862.012	44.56
862.315	43.27
862.617	41.65
862.919	41.79
863.222	41.96
863.524	42.12
863.826	42.77
864.128	42.56
864.43	43.62
864.732	44.26
865.034	43.83
865.336	43.61
865.638	42.18
865.94	42.44
866.242	40.17
866.544	40.81
866.846	38.44
867.147	40.34
867.449	37.84
867.751	38.05
868.052	38.27
868.354	37.38
868.655	37.24
868.957	39.39
869.258	37.94
869.56	40.87
869.861	42.32
870.162	39.93
870.463	41.26
870.765	39.81
871.066	39.74
871.367	40.64
871.668	41.03
871.969	41.79
872.27	42.94
872.571	43.02
872.872	43.01
873.173	44.97
873.473	44.43
873.774	45.68
874.075	47.6
874.376	45.89
874.676	46.46
874.977	48.46
875.277	48.45
875.578	50.12
875.878	46.84
876.179	46.06
876.479	48.27
876.78	48.97
877.08	50.39
877.38	50.37
877.68	49.84
877.981	49.36
878.281	51.05
878.581	49.02
