Data from BU58141_Reflection_00005.txt Node
Date: Mon Nov 18 16:46:43 EST 2019
User: vgr7
Spectrometer: USB2G7710
Scans to average: 3
Trigger mode: 4
Integration Time (sec): 2.000000E-2
Electric dark correction enabled: true
Boxcar width: 10
XAxis mode: Wavelengths
Number of Pixels in Spectrum: 2048
>>>>>Begin Spectral Data<<<<<
177.721	-195.76
178.105	-106.04
178.488	-66
178.871	-87.41
179.254	-38.56
179.636	3037.5
180.019	123.41
180.402	74.07
180.785	185.55
181.168	-3282.35
181.55	-347
181.933	133.18
182.316	219.02
182.698	108.03
183.081	68.51
183.463	21.17
183.846	34.09
184.228	16.82
184.611	1.54
184.993	8.29
185.376	18.4
185.758	23.88
186.14	34.73
186.522	77.72
186.904	190.1
187.287	384.87
187.669	-754.67
188.051	-1138.27
188.433	-400.68
188.815	-300.87
189.197	619.31
189.579	-7140
189.961	-1098.9
190.342	-1587.9
190.724	-209.64
191.106	-110.93
191.488	-153.7
191.869	-106.5
192.251	-107.88
192.633	-112.61
193.014	-149.69
193.396	-152.12
193.777	-176.57
194.159	-193.89
194.54	-128.68
194.922	-121.03
195.303	-103.62
195.684	-100.34
196.065	-57.41
196.447	-44.81
196.828	-61.52
197.209	-65.05
197.59	-55.29
197.971	-48.88
198.352	-31.13
198.733	-34.39
199.114	-41.03
199.495	-29.43
199.876	-33.02
200.257	-28.17
200.638	-21.36
201.018	-31.72
201.399	-27.98
201.78	-21.91
202.16	-31.86
202.541	-49.68
202.922	-82.87
203.302	-76.32
203.683	-90.94
204.063	-108.35
204.444	-127.59
204.824	-122.04
205.204	-89.87
205.585	-90.28
205.965	-82.4
206.345	-105.18
206.725	-111.97
207.106	-126.77
207.486	-151.47
207.866	-140.12
208.246	-116.27
208.626	-120.75
209.006	-74
209.386	-105.19
209.766	-133.06
210.145	-102.41
210.525	-85.5
210.905	-53.35
211.285	-62.91
211.664	-38.05
212.044	-30.72
212.424	-24.05
212.803	-28
213.183	-42.64
213.562	-44.86
213.942	-39.27
214.321	-18.23
214.701	-21.16
215.08	-27.9
215.459	-20.43
215.838	-9.94
216.218	-15.68
216.597	-17.44
216.976	-16.95
217.355	-5.56
217.734	-4.07
218.113	0.46
218.492	1.05
218.871	-0.05
219.25	9.81
219.629	5.71
220.008	-2.12
220.387	-7.93
220.766	-1.93
221.144	-7.93
221.523	-3.65
221.902	-9.66
222.28	-23.41
222.659	-12.98
223.037	-6.45
223.416	-7.61
223.794	-21.8
224.173	-21.59
224.551	-12.24
224.929	-10.07
225.308	-4.31
225.686	-7.44
226.064	-6.79
226.442	-4.59
226.821	-4.53
227.199	-9.91
227.577	-11.92
227.955	-11.53
228.333	-8.57
228.711	-5.75
229.089	-0.71
229.467	-1.84
229.845	-1.27
230.222	0.28
230.6	-2.66
230.978	-2.81
231.356	0.43
231.733	0.92
232.111	1.43
232.488	1.91
232.866	1.82
233.243	0.9
233.621	1.75
233.998	2.45
234.376	2.39
234.753	1.95
235.13	0.69
235.508	1.3
235.885	3.43
236.262	3.16
236.639	1.64
237.016	1.26
237.393	1.5
237.77	1.94
238.147	2.73
238.524	4.38
238.901	5.49
239.278	5.38
239.655	6.02
240.032	5.51
240.409	5.38
240.785	5.1
241.162	5.31
241.539	5.1
241.915	5
242.292	4.59
242.668	4.36
243.045	4.83
243.421	4.73
243.798	4.35
244.174	4.33
244.551	4.53
244.927	4.37
245.303	4.37
245.679	4.3
246.056	4
246.432	3.88
246.808	3.54
247.184	3.11
247.56	2.69
247.936	2.79
248.312	2.65
248.688	2.69
249.064	2.54
249.44	2.71
249.815	2.6
250.191	2.76
250.567	2.9
250.943	2.84
251.318	2.84
251.694	2.97
252.069	2.91
252.445	2.75
252.82	2.86
253.196	2.67
253.571	2.77
253.947	2.87
254.322	2.79
254.697	3.03
255.073	2.99
255.448	3.05
255.823	3.2
256.198	3.44
256.573	3.43
256.948	3.41
257.323	3.54
257.698	3.57
258.073	3.64
258.448	3.59
258.823	3.6
259.198	3.44
259.573	3.3
259.948	3.26
260.322	3.25
260.697	2.98
261.072	2.98
261.446	2.87
261.821	2.82
262.195	2.99
262.57	2.85
262.944	3.02
263.319	3.09
263.693	2.95
264.067	3.04
264.442	3.23
264.816	3.13
265.19	2.77
265.564	2.84
265.938	2.6
266.313	2.4
266.687	2.46
267.061	2.74
267.435	2.88
267.809	2.99
268.183	3
268.556	3.14
268.93	3.19
269.304	3.28
269.678	3.18
270.051	3.1
270.425	3.3
270.799	3.11
271.172	3.09
271.546	3.13
271.919	2.96
272.293	2.68
272.666	2.79
273.04	2.92
273.413	2.78
273.787	3.03
274.16	3.25
274.533	3.29
274.906	3.13
275.279	3.06
275.653	2.94
276.026	2.97
276.399	3.1
276.772	3.11
277.145	2.99
277.518	3.09
277.891	3.06
278.263	2.96
278.636	3.14
279.009	3.17
279.382	3.24
279.755	3.31
280.127	3.66
280.5	3.64
280.872	3.56
281.245	3.54
281.617	3.62
281.99	3.62
282.362	3.6
282.735	3.49
283.107	3.54
283.479	3.68
283.852	3.71
284.224	3.62
284.596	3.65
284.968	3.68
285.34	3.68
285.713	3.66
286.085	3.78
286.457	3.67
286.829	3.67
287.201	3.67
287.572	3.56
287.944	3.47
288.316	3.51
288.688	3.69
289.06	3.76
289.431	3.65
289.803	3.62
290.175	3.59
290.546	3.76
290.918	3.74
291.289	3.76
291.661	3.69
292.032	3.8
292.403	3.75
292.775	3.81
293.146	3.95
293.517	3.94
293.889	3.93
294.26	4.03
294.631	4.2
295.002	4.01
295.373	4.06
295.744	4.06
296.115	4.05
296.486	3.94
296.857	3.99
297.228	4.03
297.599	4.01
297.97	3.97
298.34	3.94
298.711	3.99
299.082	3.87
299.452	3.92
299.823	3.84
300.194	3.82
300.564	3.86
300.935	3.77
301.305	3.74
301.676	3.63
302.046	3.68
302.416	3.57
302.787	3.75
303.157	3.6
303.527	3.38
303.897	3.3
304.267	3.41
304.637	3.47
305.008	3.39
305.378	3.41
305.748	3.43
306.117	3.61
306.487	3.59
306.857	3.63
307.227	3.61
307.597	3.59
307.967	3.72
308.336	3.86
308.706	3.83
309.076	3.79
309.445	3.82
309.815	3.73
310.184	3.55
310.554	3.61
310.923	3.78
311.293	3.94
311.662	4.01
312.031	3.89
312.401	3.73
312.77	3.77
313.139	3.76
313.508	3.72
313.877	3.72
314.246	3.67
314.616	3.65
314.985	3.44
315.353	3.48
315.722	3.43
316.091	3.21
316.46	3.13
316.829	3.19
317.198	3.16
317.567	3.01
317.935	3.13
318.304	3
318.672	2.92
319.041	3.03
319.41	2.94
319.778	2.9
320.147	2.97
320.515	2.85
320.883	2.89
321.252	2.95
321.62	2.67
321.988	2.76
322.357	2.79
322.725	2.94
323.093	2.96
323.461	3
323.829	2.99
324.197	3.16
324.565	3.22
324.933	3.29
325.301	3.46
325.669	3.43
326.037	3.42
326.405	3.42
326.772	3.5
327.14	3.6
327.508	3.64
327.875	3.59
328.243	3.73
328.61	3.66
328.978	3.79
329.346	3.91
329.713	3.85
330.08	3.91
330.448	3.93
330.815	3.75
331.182	3.76
331.55	3.73
331.917	3.69
332.284	3.69
332.651	3.65
333.018	3.66
333.385	3.49
333.752	3.59
334.119	3.64
334.486	3.44
334.853	3.4
335.22	3.48
335.587	3.45
335.954	3.38
336.32	3.37
336.687	3.27
337.054	3.21
337.42	3.17
337.787	3.09
338.153	3.13
338.52	3.26
338.886	3.17
339.253	3.17
339.619	3.13
339.986	3.13
340.352	3.11
340.718	3.04
341.084	3.17
341.451	3.07
341.817	3.14
342.183	3.13
342.549	3.08
342.915	3.03
343.281	3.08
343.647	3.04
344.013	3.02
344.379	2.85
344.745	2.96
345.11	3
345.476	2.92
345.842	2.81
346.208	2.84
346.573	2.9
346.939	3.03
347.304	3.03
347.67	2.98
348.035	2.98
348.401	3.12
348.766	3.14
349.132	3.17
349.497	3.11
349.862	3.2
350.228	3.11
350.593	3
350.958	3.04
351.323	3.07
351.688	3.13
352.053	3.26
352.418	3.26
352.783	3.27
353.148	3.36
353.513	3.44
353.878	3.51
354.243	3.51
354.608	3.45
354.972	3.49
355.337	3.47
355.702	3.51
356.066	3.4
356.431	3.38
356.795	3.48
357.16	3.44
357.524	3.28
357.889	3.35
358.253	3.41
358.618	3.45
358.982	3.42
359.346	3.42
359.71	3.46
360.075	3.47
360.439	3.45
360.803	3.5
361.167	3.48
361.531	3.39
361.895	3.32
362.259	3.33
362.623	3.33
362.987	3.33
363.351	3.3
363.714	3.38
364.078	3.41
364.442	3.37
364.806	3.35
365.169	3.39
365.533	3.39
365.896	3.4
366.26	3.3
366.623	3.27
366.987	3.23
367.35	3.2
367.714	3.21
368.077	3.14
368.44	3.11
368.803	3.1
369.167	3.07
369.53	3.13
369.893	3.13
370.256	3.08
370.619	3.07
370.982	2.98
371.345	2.88
371.708	2.84
372.071	2.78
372.434	2.87
372.797	2.9
373.159	2.87
373.522	2.9
373.885	2.95
374.247	2.95
374.61	3.01
374.973	2.99
375.335	2.95
375.698	3.03
376.06	3.04
376.423	3.03
376.785	3.07
377.147	3.04
377.51	3.02
377.872	3.07
378.234	3.11
378.596	3.18
378.958	3.16
379.321	3.17
379.683	3.21
380.045	3.14
380.407	3.16
380.769	3.19
381.13	3.15
381.492	3.17
381.854	3.22
382.216	3.23
382.578	3.25
382.939	3.21
383.301	3.16
383.663	3.13
384.024	3.1
384.386	3.14
384.747	3.14
385.109	3.12
385.47	3.07
385.832	3.05
386.193	3.08
386.554	3.07
386.916	3.07
387.277	3.06
387.638	3.05
387.999	3.05
388.36	3.06
388.721	3.06
389.082	3.03
389.443	2.98
389.804	2.91
390.165	2.91
390.526	2.94
390.887	2.97
391.248	3.01
391.609	3.06
391.969	3.01
392.33	3.01
392.691	3.02
393.051	3.04
393.412	3.02
393.772	2.97
394.133	3
394.493	2.99
394.854	2.98
395.214	2.99
395.574	2.99
395.935	2.95
396.295	2.99
396.655	3.02
397.015	3.04
397.376	3.1
397.736	3.1
398.096	3.1
398.456	3.1
398.816	3.07
399.176	3.03
399.535	3.05
399.895	3.08
400.255	3.07
400.615	3.07
400.975	3.09
401.334	3.1
401.694	3.08
402.054	3.06
402.413	3.05
402.773	3.03
403.132	2.98
403.492	2.99
403.851	2.96
404.211	2.93
404.57	2.92
404.929	2.9
405.288	2.88
405.648	2.87
406.007	2.85
406.366	2.86
406.725	2.87
407.084	2.88
407.443	2.85
407.802	2.89
408.161	2.86
408.52	2.84
408.879	2.85
409.238	2.88
409.596	2.9
409.955	2.91
410.314	2.92
410.673	2.96
411.031	2.96
411.39	2.99
411.748	2.98
412.107	3.01
412.465	3.01
412.824	3.03
413.182	3.02
413.54	3.03
413.899	3.02
414.257	3.04
414.615	3.04
414.974	3.05
415.332	3
415.69	3.02
416.048	3.02
416.406	3.03
416.764	3.02
417.122	3.03
417.48	3.02
417.838	3.02
418.195	3.03
418.553	3.01
418.911	3
419.269	3.01
419.626	2.99
419.984	3
420.342	2.99
420.699	2.99
421.057	3
421.414	2.99
421.772	2.99
422.129	2.97
422.486	2.96
422.844	2.98
423.201	2.98
423.558	2.99
423.915	2.98
424.273	2.98
424.63	2.96
424.987	2.96
425.344	2.96
425.701	2.96
426.058	2.97
426.415	2.97
426.772	2.97
427.128	2.95
427.485	2.92
427.842	2.9
428.199	2.9
428.555	2.89
428.912	2.9
429.269	2.89
429.625	2.9
429.982	2.91
430.338	2.9
430.695	2.9
431.051	2.89
431.407	2.9
431.764	2.91
432.12	2.92
432.476	2.92
432.832	2.93
433.189	2.92
433.545	2.92
433.901	2.92
434.257	2.9
434.613	2.92
434.969	2.94
435.325	2.96
435.681	2.98
436.036	2.97
436.392	2.96
436.748	2.96
437.104	2.93
437.459	2.93
437.815	2.92
438.171	2.92
438.526	2.93
438.882	2.93
439.237	2.93
439.593	2.94
439.948	2.93
440.304	2.91
440.659	2.91
441.014	2.91
441.369	2.9
441.725	2.91
442.08	2.92
442.435	2.93
442.79	2.94
443.145	2.93
443.5	2.94
443.855	2.94
444.21	2.96
444.565	2.99
444.92	3
445.275	3
445.629	3.02
445.984	3.02
446.339	3
446.693	3
447.048	2.99
447.403	2.99
447.757	2.99
448.112	2.99
448.466	2.98
448.82	2.99
449.175	2.98
449.529	2.98
449.883	2.95
450.238	2.94
450.592	2.94
450.946	2.92
451.3	2.91
451.654	2.89
452.008	2.88
452.362	2.85
452.716	2.85
453.07	2.83
453.424	2.82
453.778	2.82
454.132	2.82
454.486	2.83
454.839	2.84
455.193	2.84
455.547	2.84
455.9	2.86
456.254	2.86
456.607	2.88
456.961	2.86
457.314	2.85
457.668	2.86
458.021	2.87
458.375	2.88
458.728	2.91
459.081	2.9
459.434	2.89
459.787	2.91
460.141	2.93
460.494	2.92
460.847	2.93
461.2	2.93
461.553	2.93
461.906	2.92
462.259	2.91
462.611	2.92
462.964	2.94
463.317	2.95
463.67	2.94
464.022	2.94
464.375	2.95
464.728	2.96
465.08	2.95
465.433	2.94
465.785	2.93
466.138	2.92
466.49	2.94
466.843	2.96
467.195	2.93
467.547	2.9
467.899	2.91
468.252	2.9
468.604	2.91
468.956	2.9
469.308	2.9
469.66	2.9
470.012	2.91
470.364	2.92
470.716	2.91
471.068	2.92
471.42	2.93
471.772	2.95
472.123	2.97
472.475	2.99
472.827	3.01
473.178	3.01
473.53	2.97
473.882	2.96
474.233	2.97
474.585	2.98
474.936	2.99
475.288	2.98
475.639	3
475.99	3
476.342	3
476.693	3
477.044	3
477.395	2.99
477.746	2.98
478.097	2.97
478.448	2.97
478.8	2.95
479.15	2.94
479.501	2.93
479.852	2.93
480.203	2.94
480.554	2.95
480.905	2.99
481.255	2.99
481.606	2.99
481.957	3
482.307	3
482.658	2.99
483.009	2.99
483.359	2.99
483.709	3
484.06	3
484.41	3.01
484.761	3.01
485.111	3.01
485.461	3.01
485.811	3.01
486.162	3.02
486.512	3.03
486.862	3.03
487.212	3.02
487.562	3.02
487.912	3.01
488.262	3
488.612	2.99
488.961	2.98
489.311	2.98
489.661	2.98
490.011	2.98
490.36	2.99
490.71	2.99
491.06	3
491.409	3
491.759	3
492.108	2.99
492.458	2.97
492.807	2.97
493.157	2.96
493.506	2.97
493.855	2.96
494.204	2.96
494.554	2.97
494.903	2.97
495.252	2.98
495.601	2.98
495.95	2.99
496.299	3
496.648	3
496.997	3.01
497.346	3.01
497.695	3
498.043	3
498.392	2.99
498.741	2.99
499.09	2.99
499.438	3.01
499.787	3.04
500.135	3.06
500.484	3.06
500.832	3.05
501.181	3.05
501.529	3.02
501.878	3.03
502.226	3.04
502.574	3.05
502.923	3.06
503.271	3.06
503.619	3.04
503.967	3.04
504.315	3.03
504.663	3.04
505.011	3.02
505.359	3
505.707	3
506.055	3.01
506.403	3.03
506.751	3.03
507.098	3.01
507.446	3.02
507.794	3.03
508.141	3.04
508.489	3.04
508.837	3.06
509.184	3.08
509.531	3.09
509.879	3.09
510.226	3.08
510.574	3.09
510.921	3.13
511.268	3.14
511.616	3.14
511.963	3.17
512.31	3.19
512.657	3.22
513.004	3.22
513.351	3.22
513.698	3.22
514.045	3.22
514.392	3.22
514.739	3.22
515.086	3.24
515.432	3.22
515.779	3.24
516.126	3.26
516.473	3.27
516.819	3.27
517.166	3.26
517.512	3.28
517.859	3.29
518.205	3.27
518.552	3.29
518.898	3.3
519.245	3.31
519.591	3.32
519.937	3.31
520.283	3.33
520.629	3.34
520.976	3.34
521.322	3.37
521.668	3.38
522.014	3.39
522.36	3.4
522.706	3.4
523.052	3.41
523.398	3.43
523.743	3.42
524.089	3.42
524.435	3.43
524.781	3.43
525.126	3.44
525.472	3.44
525.817	3.44
526.163	3.44
526.509	3.44
526.854	3.43
527.199	3.44
527.545	3.43
527.89	3.44
528.235	3.45
528.581	3.45
528.926	3.45
529.271	3.45
529.616	3.45
529.961	3.47
530.306	3.46
530.651	3.46
530.996	3.46
531.341	3.46
531.686	3.46
532.031	3.46
532.376	3.46
532.721	3.47
533.065	3.46
533.41	3.46
533.755	3.48
534.099	3.5
534.444	3.49
534.788	3.51
535.133	3.48
535.477	3.48
535.822	3.48
536.166	3.49
536.51	3.47
536.855	3.47
537.199	3.48
537.543	3.51
537.887	3.51
538.231	3.52
538.576	3.53
538.92	3.56
539.264	3.56
539.608	3.56
539.951	3.56
540.295	3.55
540.639	3.55
540.983	3.55
541.327	3.54
541.671	3.55
542.014	3.53
542.358	3.55
542.701	3.55
543.045	3.57
543.389	3.58
543.732	3.59
544.075	3.59
544.419	3.58
544.762	3.55
545.105	3.55
545.449	3.54
545.792	3.54
546.135	3.54
546.478	3.54
546.821	3.54
547.165	3.52
547.508	3.56
547.851	3.57
548.194	3.56
548.536	3.59
548.879	3.61
549.222	3.62
549.565	3.63
549.908	3.65
550.25	3.64
550.593	3.66
550.936	3.63
551.278	3.64
551.621	3.64
551.963	3.68
552.306	3.68
552.648	3.67
552.991	3.68
553.333	3.66
553.675	3.67
554.017	3.68
554.36	3.69
554.702	3.68
555.044	3.64
555.386	3.65
555.728	3.62
556.07	3.65
556.412	3.64
556.754	3.63
557.096	3.61
557.438	3.61
557.78	3.59
558.121	3.64
558.463	3.65
558.805	3.65
559.147	3.65
559.488	3.65
559.83	3.65
560.171	3.65
560.513	3.7
560.854	3.72
561.196	3.73
561.537	3.75
561.878	3.73
562.22	3.77
562.561	3.74
562.902	3.77
563.243	3.77
563.584	3.79
563.925	3.8
564.266	3.77
564.607	3.76
564.948	3.74
565.289	3.73
565.63	3.74
565.971	3.74
566.312	3.75
566.653	3.77
566.993	3.81
567.334	3.78
567.675	3.78
568.015	3.77
568.356	3.79
568.696	3.77
569.037	3.8
569.377	3.8
569.718	3.8
570.058	3.79
570.398	3.77
570.739	3.79
571.079	3.79
571.419	3.8
571.759	3.85
572.099	3.87
572.439	3.88
572.779	3.86
573.119	3.89
573.459	3.87
573.799	3.89
574.139	3.86
574.479	3.89
574.819	3.88
575.158	3.89
575.498	3.88
575.838	3.88
576.177	3.85
576.517	3.84
576.856	3.88
577.196	3.86
577.535	3.86
577.875	3.85
578.214	3.84
578.553	3.88
578.893	3.84
579.232	3.84
579.571	3.86
579.91	3.85
580.25	3.86
580.589	3.87
580.928	3.85
581.267	3.86
581.606	3.83
581.945	3.84
582.283	3.83
582.622	3.84
582.961	3.85
583.3	3.89
583.639	3.89
583.977	3.89
584.316	3.84
584.654	3.84
584.993	3.81
585.332	3.8
585.67	3.77
586.008	3.79
586.347	3.75
586.685	3.68
587.024	3.65
587.362	3.59
587.7	3.58
588.038	3.6
588.376	3.61
588.715	3.64
589.053	3.63
589.391	3.65
589.729	3.64
590.067	3.58
590.404	3.58
590.742	3.64
591.08	3.62
591.418	3.67
591.756	3.66
592.093	3.67
592.431	3.68
592.769	3.7
593.106	3.7
593.444	3.67
593.781	3.65
594.119	3.7
594.456	3.72
594.793	3.71
595.131	3.71
595.468	3.72
595.805	3.69
596.143	3.72
596.48	3.67
596.817	3.68
597.154	3.76
597.491	3.75
597.828	3.72
598.165	3.72
598.502	3.7
598.839	3.7
599.176	3.72
599.512	3.75
599.849	3.75
600.186	3.78
600.523	3.84
600.859	3.89
601.196	3.88
601.532	3.87
601.869	3.87
602.205	3.87
602.542	3.86
602.878	3.87
603.215	3.87
603.551	3.93
603.887	3.93
604.223	3.9
604.56	3.92
604.896	3.92
605.232	3.94
605.568	3.97
605.904	3.96
606.24	3.95
606.576	3.95
606.912	3.94
607.248	3.93
607.583	3.98
607.919	3.99
608.255	3.97
608.591	3.99
608.926	4
609.262	3.98
609.597	3.96
609.933	3.99
610.268	3.96
610.604	3.96
610.939	3.97
611.275	3.97
611.61	3.93
611.945	3.95
612.281	3.89
612.616	3.91
612.951	3.96
613.286	3.94
613.621	3.91
613.956	3.93
614.291	3.94
614.626	3.92
614.961	3.89
615.296	3.88
615.631	3.91
615.966	3.92
616.3	3.92
616.635	3.96
616.97	3.92
617.304	3.9
617.639	3.9
617.973	3.89
618.308	3.89
618.642	3.97
618.977	3.94
619.311	3.96
619.646	3.93
619.98	3.91
620.314	3.94
620.648	3.96
620.983	3.96
621.317	3.94
621.651	3.91
621.985	3.99
622.319	4.05
622.653	4.07
622.987	4.08
623.321	4.07
623.655	4.07
623.988	4.13
624.322	4.15
624.656	4.13
624.99	4.13
625.323	4.14
625.657	4.13
625.99	4.14
626.324	4.16
626.657	4.19
626.991	4.19
627.324	4.15
627.658	4.1
627.991	4.08
628.324	4.06
628.657	4.09
628.991	4.02
629.324	4.01
629.657	3.97
629.99	3.97
630.323	3.98
630.656	3.97
630.989	3.96
631.322	3.93
631.655	3.89
631.987	3.87
632.32	3.89
632.653	3.84
632.986	3.86
633.318	3.86
633.651	3.81
633.984	3.83
634.316	3.81
634.649	3.85
634.981	3.84
635.313	3.84
635.646	3.85
635.978	3.88
636.31	3.85
636.643	3.82
636.975	3.84
637.307	3.83
637.639	3.81
637.971	3.78
638.303	3.82
638.635	3.85
638.967	3.89
639.299	3.91
639.631	3.94
639.963	3.85
640.295	3.81
640.626	3.82
640.958	3.83
641.29	3.89
641.621	3.91
641.953	3.91
642.285	3.93
642.616	3.91
642.948	3.87
643.279	3.91
643.61	3.96
643.942	3.92
644.273	3.96
644.604	3.95
644.936	3.91
645.267	3.86
645.598	3.92
645.929	3.89
646.26	3.93
646.591	3.93
646.922	3.94
647.253	3.96
647.584	3.91
647.915	3.89
648.245	3.86
648.576	3.89
648.907	3.88
649.238	3.86
649.568	3.89
649.899	3.86
650.229	3.89
650.56	3.88
650.89	3.99
651.221	4.02
651.551	4.02
651.882	4.09
652.212	4.16
652.542	4.06
652.872	4.07
653.203	4.01
653.533	4
653.863	4.03
654.193	4.07
654.523	4.13
654.853	4.16
655.183	4.12
655.513	4.1
655.843	4.18
656.172	4.22
656.502	4.19
656.832	4.19
657.162	4.23
657.491	4.18
657.821	4.06
658.15	4.05
658.48	4.06
658.809	4.09
659.139	4.06
659.468	4.07
659.798	4.07
660.127	4.02
660.456	4.05
660.785	4.04
661.115	4.02
661.444	4
661.773	4
662.102	4.08
662.431	4.07
662.76	4.07
663.089	4.11
663.418	4.07
663.747	4.09
664.076	4.05
664.404	4.05
664.733	4.07
665.062	4.06
665.39	4.04
665.719	3.92
666.048	3.87
666.376	3.86
666.705	3.88
667.033	3.92
667.362	3.96
667.69	4.01
668.018	4.04
668.347	4.08
668.675	4.04
669.003	4.02
669.331	4.05
669.659	4.05
669.987	3.99
670.315	4.05
670.643	4.09
670.971	4.12
671.299	4.19
671.627	4.3
671.955	4.27
672.283	4.28
672.61	4.36
672.938	4.43
673.266	4.49
673.593	4.58
673.921	4.58
674.249	4.59
674.576	4.55
674.904	4.57
675.231	4.55
675.558	4.6
675.886	4.65
676.213	4.65
676.54	4.58
676.867	4.6
677.195	4.62
677.522	4.55
677.849	4.44
678.176	4.38
678.503	4.32
678.83	4.39
679.157	4.41
679.484	4.36
679.81	4.41
680.137	4.35
680.464	4.19
680.791	4.09
681.117	4
681.444	4.03
681.771	3.99
682.097	3.98
682.424	4
682.75	3.98
683.077	3.89
683.403	3.89
683.729	3.87
684.056	3.83
684.382	3.9
684.708	3.93
685.034	3.96
685.36	3.93
685.686	3.95
686.012	3.93
686.339	3.96
686.664	3.86
686.99	3.97
687.316	4
687.642	4.06
687.968	4.08
688.294	4.09
688.619	4.06
688.945	4.03
689.271	3.97
689.596	3.96
689.922	4.02
690.247	4
690.573	3.96
690.898	3.98
691.224	3.89
691.549	3.99
691.874	4.02
692.2	4.04
692.525	4
692.85	3.94
693.175	3.98
693.5	3.87
693.825	3.92
694.15	4.05
694.475	4.07
694.8	4.17
695.125	4.16
695.45	4.24
695.775	4.28
696.099	4.26
696.424	4.29
696.749	4.18
697.073	4.2
697.398	4.25
697.723	4.18
698.047	4.25
698.372	4.15
698.696	4.15
699.02	4.22
699.345	4.2
699.669	4.38
699.993	4.33
700.318	4.53
700.642	4.49
700.966	4.4
701.29	4.37
701.614	4.19
701.938	4.33
702.262	4.38
702.586	4.38
702.91	4.45
703.234	4.38
703.557	4.47
703.881	4.45
704.205	4.44
704.529	4.45
704.852	4.51
705.176	4.58
705.499	4.57
705.823	4.42
706.146	4.3
706.47	4.21
706.793	4.25
707.117	4.2
707.44	3.99
707.763	4.05
708.086	4.1
708.409	4.15
708.733	4.03
709.056	3.93
709.379	4.04
709.702	3.88
710.025	3.84
710.348	3.88
710.671	3.87
710.993	3.81
711.316	3.85
711.639	3.83
711.962	3.89
712.284	3.84
712.607	3.79
712.93	3.86
713.252	3.67
713.575	3.7
713.897	3.72
714.22	3.85
714.542	3.93
714.864	3.96
715.187	3.95
715.509	3.83
715.831	3.75
716.153	3.64
716.475	3.81
716.798	3.99
717.12	3.99
717.442	4.14
717.764	4.22
718.085	4.23
718.407	4.16
718.729	4.11
719.051	4.17
719.373	4.35
719.695	4.4
720.016	4.57
720.338	4.59
720.659	4.6
720.981	4.56
721.302	4.46
721.624	4.51
721.945	4.49
722.267	4.61
722.588	4.67
722.909	4.81
723.231	4.62
723.552	4.55
723.873	4.67
724.194	4.49
724.515	4.53
724.836	4.49
725.157	4.51
725.478	4.57
725.799	4.52
726.12	4.47
726.441	4.54
726.762	4.46
727.083	4.6
727.403	4.47
727.724	4.69
728.045	4.67
728.365	4.62
728.686	4.68
729.006	4.73
729.327	4.82
729.647	4.73
729.967	4.84
730.288	4.9
730.608	4.67
730.928	4.69
731.249	4.63
731.569	4.78
731.889	4.8
732.209	4.73
732.529	4.74
732.849	4.75
733.169	4.79
733.489	4.81
733.809	4.7
734.129	4.86
734.448	4.76
734.768	4.9
735.088	5.06
735.408	5.06
735.727	4.99
736.047	5.1
736.366	5.05
736.686	5.06
737.005	4.97
737.325	5.21
737.644	5.25
737.963	5.27
738.283	5.1
738.602	5.18
738.921	5.2
739.24	5.27
739.56	5.24
739.879	5.13
740.198	5.41
740.517	5.3
740.836	5.27
741.155	5.18
741.473	5.09
741.792	4.93
742.111	5.06
742.43	5.08
742.748	4.86
743.067	4.92
743.386	4.87
743.704	5.01
744.023	4.89
744.341	5
744.66	5.38
744.978	5.37
745.297	5.26
745.615	5.14
745.933	4.9
746.252	5.08
746.57	5.01
746.888	4.71
747.206	4.68
747.524	4.64
747.842	4.64
748.16	4.61
748.478	4.53
748.796	4.59
749.114	4.93
749.432	4.96
749.749	5.17
750.067	5.2
750.385	5.04
750.703	4.95
751.02	4.88
751.338	4.47
751.655	4.54
751.973	4.52
752.29	4.63
752.608	4.95
752.925	4.77
753.242	4.92
753.56	4.94
753.877	5.15
754.194	5.06
754.511	5.09
754.828	5.06
755.145	5.16
755.462	5
755.779	4.66
756.096	4.95
756.413	5
756.73	5.06
757.047	5.14
757.364	5.05
757.68	5.09
757.997	5.23
758.314	5.21
758.63	5.32
758.947	5.21
759.264	5.08
759.58	5.12
759.896	5.13
760.213	5.45
760.529	5.29
760.846	5.36
761.162	5.37
761.478	5.39
761.794	5.37
762.11	5.51
762.426	5.62
762.743	5.44
763.059	5.24
763.375	5.18
763.69	5.12
764.006	5.08
764.322	5.04
764.638	5.14
764.954	5.06
765.27	5.08
765.585	5.06
765.901	5.06
766.216	5.05
766.532	5.09
766.848	4.76
767.163	4.93
767.478	4.9
767.794	4.89
768.109	4.92
768.424	4.94
768.74	5.02
769.055	4.84
769.37	4.96
769.685	4.92
770	5.17
770.315	4.99
770.63	5.27
770.945	5.25
771.26	5.13
771.575	5.44
771.89	5.67
772.205	5.96
772.52	5.94
772.834	5.87
773.149	5.57
773.464	5.7
773.778	5.33
774.093	5.34
774.407	5.29
774.722	5.3
775.036	5.59
775.351	5.55
775.665	5.81
775.979	5.53
776.293	5.93
776.608	5.64
776.922	6.09
777.236	6.18
777.55	6.03
777.864	6.06
778.178	6.01
778.492	5.91
778.806	5.83
779.12	6.08
779.434	6.27
779.747	6.37
780.061	6.46
780.375	6.97
780.689	7.19
781.002	7.79
781.316	7.59
781.629	7.73
781.943	7.45
782.256	7.27
782.57	7.55
782.883	7.57
783.196	7.67
783.51	7.38
783.823	7.55
784.136	7.98
784.449	8.18
784.762	8.15
785.075	8.12
785.388	8.15
785.701	8.26
786.014	8.1
786.327	8.29
786.64	8.24
786.953	8.31
787.266	7.89
787.578	7.13
787.891	7.66
788.204	7.39
788.516	7.72
788.829	7.91
789.141	7.88
789.454	7.6
789.766	7.54
790.079	7.92
790.391	7.64
790.703	7.77
791.016	7.45
791.328	7.67
791.64	7.54
791.952	7.57
792.264	6.87
792.576	7
792.888	6.65
793.2	6.92
793.512	6.08
793.824	6.25
794.136	6.66
794.448	6.42
794.76	6.38
795.071	6.11
795.383	6.26
795.695	5.96
796.006	6.34
796.318	6.6
796.629	6.34
796.941	6.43
797.252	6.16
797.564	6.67
797.875	6.26
798.186	6.43
798.497	6.39
798.809	6.54
799.12	6.97
799.431	6.83
799.742	6.52
800.053	7.65
800.364	7.91
800.675	8.2
800.986	7.57
801.297	7.14
801.608	7.12
801.918	6.64
802.229	7.52
802.54	6.99
802.851	7.11
803.161	6.93
803.472	7.25
803.782	7.41
804.093	7.12
804.403	7.4
804.714	7.43
805.024	6.83
805.334	7.37
805.645	7.29
805.955	7.85
806.265	8.08
806.575	7.5
806.885	7.69
807.195	8.11
807.505	8.54
807.815	9
808.125	9.31
808.435	9.14
808.745	8.45
809.055	8.91
809.365	8.75
809.674	9.05
809.984	9.09
810.294	8.54
810.603	8.2
810.913	8.44
811.222	8.37
811.532	9.11
811.841	9.37
812.151	9.17
812.46	8.88
812.769	8.01
813.079	8.11
813.388	7.77
813.697	7.2
814.006	7.45
814.315	7.08
814.624	6.78
814.933	7.17
815.242	7.5
815.551	7.12
815.86	7.64
816.169	7.46
816.478	7.05
816.786	7.9
817.095	8.82
817.404	8.51
817.712	8.16
818.021	8.52
818.33	8.25
818.638	7.62
818.947	7.8
819.255	8.26
819.563	7.83
819.872	7.34
820.18	7.35
820.488	7.09
820.796	7.23
821.105	7.12
821.413	7.18
821.721	7.04
822.029	7.02
822.337	7
822.645	7.09
822.953	7.05
823.26	7.09
823.568	6.72
823.876	6.67
824.184	6.74
824.491	6.6
824.799	6.55
825.107	6.58
825.414	6.59
825.722	6.65
826.029	6.78
826.337	7.05
826.644	7.01
826.951	7
827.259	7
827.566	6.87
827.873	6.87
828.18	7.14
828.488	7.28
828.795	7.07
829.102	7.45
829.409	7.56
829.716	7.4
830.023	7.92
830.329	8
830.636	8
830.943	7.98
831.25	7.9
831.557	8.18
831.863	8
832.17	7.97
832.476	8.1
832.783	8.22
833.089	8.24
833.396	8.49
833.702	8.6
834.009	9.07
834.315	8.66
834.621	8.27
834.928	8.16
835.234	7.92
835.54	7.35
835.846	7.18
836.152	7.06
836.458	6.81
836.764	6.86
837.07	6.49
837.376	6.22
837.682	6.49
837.988	6.42
838.293	6.88
838.599	6.53
838.905	5.95
839.211	5.2
839.516	4.86
839.822	5.2
840.127	4.46
840.433	4.28
840.738	5.51
841.044	5.67
841.349	5.3
841.654	6.05
841.959	5.38
842.265	5.45
842.57	5.32
842.875	4.68
843.18	4.4
843.485	5.98
843.79	6.25
844.095	6.83
844.4	7.85
844.705	6.39
845.01	7.63
845.315	7.1
845.619	6.22
845.924	6.04
846.229	6.31
846.533	7.13
846.838	7.53
847.142	5.32
847.447	4.13
847.751	4.2
848.056	3.75
848.36	5.86
848.664	4.78
848.969	5.05
849.273	6.48
849.577	6.98
849.881	5.08
850.185	6.26
850.489	4.7
850.794	3.27
851.097	5.09
851.401	3.71
851.705	5.53
852.009	8.75
852.313	8.97
852.617	8.26
852.92	10.27
853.224	9.31
853.528	11.49
853.831	11.67
854.135	12.14
854.438	10.7
854.742	8.16
855.045	8.71
855.349	7.68
855.652	7.02
855.955	7.81
856.259	8.36
856.562	8.15
856.865	8.35
857.168	7.25
857.471	6.62
857.774	7.88
858.077	6.79
858.38	7.23
858.683	7.15
858.986	5.67
859.289	4.09
859.592	6.26
859.894	5.66
860.197	6.78
860.5	6.31
860.802	6.65
861.105	8.06
861.407	8.22
861.71	8.85
862.012	8.54
862.315	7.12
862.617	5.43
862.919	6.02
863.222	4.59
863.524	5.56
863.826	6.34
864.128	6.06
864.43	7.73
864.732	6.84
865.034	8.19
865.336	8.58
865.638	6.61
865.94	3.7
866.242	1.07
866.544	-0.66
866.846	-0.41
867.147	0.01
867.449	-0.45
867.751	1.67
868.052	3.78
868.354	3.37
868.655	4.59
868.957	5.93
869.258	5.44
869.56	7
869.861	5.59
870.162	3.88
870.463	3.26
870.765	4.02
871.066	3.31
871.367	2.44
871.668	2.75
871.969	4.54
872.27	3.8
872.571	4.84
872.872	6.71
873.173	6.2
873.473	6.41
873.774	6.53
874.075	4.79
874.376	2.51
874.676	2.16
874.977	-0.33
875.277	1.4
875.578	0.05
875.878	-0.21
876.179	0.87
876.479	1.71
876.78	0.32
877.08	-2.03
877.38	-2.63
877.68	-3.25
877.981	-3.41
878.281	-5.05
878.581	-0.95
