Data from MVZ_BU62167_Reflection_00003.txt Node
Date: Tue Nov 19 12:14:20 EST 2019
User: vgr7
Spectrometer: USB2G7710
Scans to average: 3
Trigger mode: 4
Integration Time (sec): 2.000000E-2
Electric dark correction enabled: true
Boxcar width: 10
XAxis mode: Wavelengths
Number of Pixels in Spectrum: 2048
>>>>>Begin Spectral Data<<<<<
177.721	93.07
178.105	683.33
178.488	970.89
178.871	287.72
179.254	231.37
179.636	153.26
180.019	68.32
180.402	137.5
180.785	-653.33
181.168	240.35
181.55	-172.95
181.933	-104.98
182.316	-66.67
182.698	-198.45
183.081	81.48
183.463	-118.95
183.846	-17.28
184.228	168.63
184.611	-41.03
184.993	-1.13
185.376	-41.12
185.758	-37.96
186.14	-84.44
186.522	-47.51
186.904	-39.22
187.287	61.19
187.669	-187.88
188.051	-406.29
188.433	-9177.78
188.815	-1537.25
189.197	-342.39
189.579	504.76
189.961	520.9
190.342	-519.5
190.724	-1844.44
191.106	-312.95
191.488	-211.15
191.869	-175.88
192.251	-208.24
192.633	-243.03
193.014	-217.58
193.396	-150.33
193.777	-137.84
194.159	-120.82
194.54	-89.38
194.922	-102.31
195.303	-99.73
195.684	-108.11
196.065	-106.97
196.447	-117.65
196.828	-119.95
197.209	-135.04
197.59	-100.41
197.971	-77.59
198.352	-97.61
198.733	-94.4
199.114	-100.06
199.495	-109.87
199.876	-120.1
200.257	-123.35
200.638	-104.98
201.018	-109.55
201.399	-95.2
201.78	-88.79
202.16	-95.31
202.541	-115.06
202.922	-119.6
203.302	-131.69
203.683	-98.35
204.063	-113.09
204.444	-101.94
204.824	-97.17
205.204	-94.28
205.585	-92.07
205.965	-110.52
206.345	-106.46
206.725	-81.4
207.106	-64.82
207.486	-53.56
207.866	-43.15
208.246	-32.71
208.626	-52.91
209.006	-54.71
209.386	-44.82
209.766	-38.03
210.145	-33.38
210.525	-31.08
210.905	-19.36
211.285	-20.67
211.664	-27.66
212.044	-16.46
212.424	-19.11
212.803	-21.37
213.183	-21.92
213.562	-26.43
213.942	-27.92
214.321	-30.94
214.701	-43.41
215.08	-61.5
215.459	-72.12
215.838	-89.49
216.218	-98.53
216.597	-102.45
216.976	-109.72
217.355	-117.78
217.734	-119.13
218.113	-107.53
218.492	-113.56
218.871	-112.26
219.25	-118.14
219.629	-135.3
220.008	-127.15
220.387	-114.47
220.766	-108.78
221.144	-105.55
221.523	-121.33
221.902	-132.85
222.28	-127.69
222.659	-109.57
223.037	-103.87
223.416	-90.07
223.794	-88.68
224.173	-88.85
224.551	-62.92
224.929	-62.76
225.308	-61.05
225.686	-60.84
226.064	-66.47
226.442	-55.64
226.821	-46.75
227.199	-38.92
227.577	-28.84
227.955	-26.31
228.333	-30.5
228.711	-32.12
229.089	-29.23
229.467	-26.77
229.845	-24.65
230.222	-22.22
230.6	-21.49
230.978	-17.67
231.356	-19.89
231.733	-16.26
232.111	-13.03
232.488	-13.72
232.866	-11.29
233.243	-10.15
233.621	-8.51
233.998	-4.34
234.376	-5.31
234.753	-7.19
235.13	-7.1
235.508	-7.46
235.885	-6.72
236.262	-7.01
236.639	-3.65
237.016	-1.83
237.393	-0.49
237.77	1.25
238.147	0.55
238.524	1.36
238.901	-0.12
239.278	0.21
239.655	-0.65
240.032	-0.71
240.409	-0.54
240.785	0.15
241.162	0.54
241.539	0.83
241.915	0.98
242.292	0.78
242.668	1.5
243.045	1.82
243.421	2.2
243.798	2.2
244.174	2.6
244.551	2.09
244.927	2.01
245.303	2
245.679	1.58
246.056	1.73
246.432	1.92
246.808	2.34
247.184	2.26
247.56	2.05
247.936	1.96
248.312	2.22
248.688	1.96
249.064	1.74
249.44	1.79
249.815	1.83
250.191	2.03
250.567	2.03
250.943	2.06
251.318	1.76
251.694	1.62
252.069	1.55
252.445	1.44
252.82	1.54
253.196	1.21
253.571	1.47
253.947	1.67
254.322	1.44
254.697	1.34
255.073	1.54
255.448	1.96
255.823	2.42
256.198	2.22
256.573	2.33
256.948	2.37
257.323	2.38
257.698	2.21
258.073	2.09
258.448	2
258.823	1.81
259.198	1.86
259.573	1.83
259.948	1.87
260.322	1.9
260.697	2
261.072	2.21
261.446	2.19
261.821	1.97
262.195	2.02
262.57	1.93
262.944	1.96
263.319	2.03
263.693	1.87
264.067	1.82
264.442	1.67
264.816	1.58
265.19	1.39
265.564	1.49
265.938	1.57
266.313	1.5
266.687	1.34
267.061	1.48
267.435	1.51
267.809	1.41
268.183	1.52
268.556	1.34
268.93	1.44
269.304	1.54
269.678	1.84
270.051	1.9
270.425	1.88
270.799	1.71
271.172	1.6
271.546	1.81
271.919	1.84
272.293	2.14
272.666	2.24
273.04	2.25
273.413	2.13
273.787	2.06
274.16	2.11
274.533	2.47
274.906	2.26
275.279	2.38
275.653	2.44
276.026	2.43
276.399	2.53
276.772	2.52
277.145	2.43
277.518	2.07
277.891	2.12
278.263	2.43
278.636	2.67
279.009	2.7
279.382	2.5
279.755	2.42
280.127	2.28
280.5	2.22
280.872	2.55
281.245	2.63
281.617	2.76
281.99	2.7
282.362	2.58
282.735	2.6
283.107	2.57
283.479	2.66
283.852	2.55
284.224	2.49
284.596	2.39
284.968	2.35
285.34	2.42
285.713	2.33
286.085	2.08
286.457	1.97
286.829	2.03
287.201	1.98
287.572	2.05
287.944	2.12
288.316	2.16
288.688	2.12
289.06	2.17
289.431	2.19
289.803	2.1
290.175	1.99
290.546	2.03
290.918	2.04
291.289	1.86
291.661	2.03
292.032	2.02
292.403	1.97
292.775	2.05
293.146	2.19
293.517	2.18
293.889	2.18
294.26	2.17
294.631	2.2
295.002	2.21
295.373	2.18
295.744	2.12
296.115	2.18
296.486	2.09
296.857	2.02
297.228	1.98
297.599	2.14
297.97	2.3
298.34	2.33
298.711	2.4
299.082	2.5
299.452	2.4
299.823	2.31
300.194	2.53
300.564	2.4
300.935	2.49
301.305	2.34
301.676	2.48
302.046	2.44
302.416	2.3
302.787	2.25
303.157	2.24
303.527	2.25
303.897	2.02
304.267	2.1
304.637	2.02
305.008	1.86
305.378	1.72
305.748	1.7
306.117	1.71
306.487	1.63
306.857	1.63
307.227	1.8
307.597	1.87
307.967	1.77
308.336	1.92
308.706	1.88
309.076	2.02
309.445	2.03
309.815	2.03
310.184	2.06
310.554	2.15
310.923	2.12
311.293	2.1
311.662	2.24
312.031	2.16
312.401	2.14
312.77	2.18
313.139	2.24
313.508	2
313.877	1.87
314.246	1.88
314.616	1.91
314.985	1.84
315.353	1.85
315.722	1.9
316.091	1.81
316.46	1.76
316.829	1.83
317.198	1.64
317.567	1.76
317.935	1.68
318.304	1.77
318.672	1.93
319.041	1.87
319.41	1.96
319.778	1.91
320.147	2.1
320.515	2.18
320.883	2.01
321.252	2.24
321.62	2.54
321.988	2.58
322.357	2.65
322.725	2.66
323.093	2.7
323.461	2.6
323.829	2.52
324.197	2.42
324.565	2.3
324.933	2.32
325.301	2.28
325.669	2.37
326.037	2.4
326.405	2.42
326.772	2.38
327.14	2.38
327.508	2.39
327.875	2.21
328.243	2.1
328.61	2.17
328.978	2.25
329.346	2.05
329.713	2.05
330.08	1.99
330.448	1.94
330.815	1.88
331.182	1.9
331.55	2.02
331.917	2.15
332.284	2.16
332.651	2.17
333.018	2.16
333.385	2.19
333.752	2.09
334.119	2.03
334.486	1.95
334.853	1.84
335.22	1.91
335.587	2.03
335.954	2.03
336.32	2.11
336.687	2.04
337.054	2.07
337.42	2.17
337.787	2.03
338.153	2.08
338.52	2.09
338.886	2.11
339.253	2.02
339.619	2.05
339.986	1.98
340.352	2.04
340.718	2.08
341.084	2.02
341.451	2.03
341.817	2.04
342.183	2.21
342.549	2.19
342.915	2.1
343.281	2.12
343.647	2.22
344.013	2.16
344.379	2.11
344.745	2.09
345.11	1.98
345.476	2.11
345.842	2.04
346.208	2.07
346.573	2.12
346.939	2.26
347.304	2.28
347.67	2.38
348.035	2.36
348.401	2.45
348.766	2.47
349.132	2.56
349.497	2.45
349.862	2.4
350.228	2.47
350.593	2.46
350.958	2.37
351.323	2.29
351.688	2.31
352.053	2.4
352.418	2.39
352.783	2.32
353.148	2.34
353.513	2.3
353.878	2.28
354.243	2.15
354.608	2.13
354.972	2.09
355.337	2.11
355.702	2.14
356.066	2.14
356.431	2.2
356.795	2.1
357.16	2.11
357.524	2.1
357.889	2.08
358.253	2.08
358.618	2.12
358.982	2.22
359.346	2.23
359.71	2.11
360.075	2.17
360.439	2.19
360.803	2.22
361.167	2.24
361.531	2.23
361.895	2.34
362.259	2.36
362.623	2.41
362.987	2.4
363.351	2.4
363.714	2.33
364.078	2.28
364.442	2.3
364.806	2.35
365.169	2.37
365.533	2.36
365.896	2.46
366.26	2.46
366.623	2.41
366.987	2.5
367.35	2.67
367.714	2.69
368.077	2.73
368.44	2.69
368.803	2.67
369.167	2.65
369.53	2.54
369.893	2.53
370.256	2.42
370.619	2.37
370.982	2.33
371.345	2.32
371.708	2.3
372.071	2.25
372.434	2.23
372.797	2.24
373.159	2.2
373.522	2.2
373.885	2.19
374.247	2.16
374.61	2.08
374.973	2.02
375.335	1.93
375.698	1.91
376.06	1.92
376.423	1.96
376.785	2.03
377.147	2.14
377.51	2.11
377.872	2.2
378.234	2.26
378.596	2.3
378.958	2.28
379.321	2.33
379.683	2.41
380.045	2.36
380.407	2.4
380.769	2.41
381.13	2.35
381.492	2.4
381.854	2.41
382.216	2.5
382.578	2.51
382.939	2.5
383.301	2.53
383.663	2.49
384.024	2.48
384.386	2.49
384.747	2.5
385.109	2.53
385.47	2.52
385.832	2.51
386.193	2.51
386.554	2.52
386.916	2.52
387.277	2.42
387.638	2.49
387.999	2.48
388.36	2.48
388.721	2.48
389.082	2.49
389.443	2.55
389.804	2.53
390.165	2.54
390.526	2.57
390.887	2.59
391.248	2.64
391.609	2.66
391.969	2.62
392.33	2.58
392.691	2.55
393.051	2.56
393.412	2.57
393.772	2.6
394.133	2.65
394.493	2.66
394.854	2.73
395.214	2.73
395.574	2.72
395.935	2.74
396.295	2.75
396.655	2.73
397.015	2.69
397.376	2.68
397.736	2.66
398.096	2.69
398.456	2.65
398.816	2.64
399.176	2.62
399.535	2.65
399.895	2.66
400.255	2.66
400.615	2.6
400.975	2.58
401.334	2.56
401.694	2.55
402.054	2.53
402.413	2.49
402.773	2.46
403.132	2.5
403.492	2.52
403.851	2.56
404.211	2.57
404.57	2.58
404.929	2.56
405.288	2.58
405.648	2.57
406.007	2.6
406.366	2.58
406.725	2.58
407.084	2.58
407.443	2.59
407.802	2.59
408.161	2.63
408.52	2.66
408.879	2.66
409.238	2.67
409.596	2.69
409.955	2.74
410.314	2.74
410.673	2.7
411.031	2.69
411.39	2.66
411.748	2.67
412.107	2.69
412.465	2.69
412.824	2.67
413.182	2.68
413.54	2.7
413.899	2.7
414.257	2.74
414.615	2.73
414.974	2.74
415.332	2.76
415.69	2.76
416.048	2.77
416.406	2.76
416.764	2.73
417.122	2.73
417.48	2.74
417.838	2.77
418.195	2.77
418.553	2.77
418.911	2.77
419.269	2.76
419.626	2.75
419.984	2.75
420.342	2.75
420.699	2.74
421.057	2.73
421.414	2.75
421.772	2.74
422.129	2.72
422.486	2.72
422.844	2.72
423.201	2.73
423.558	2.73
423.915	2.74
424.273	2.76
424.63	2.76
424.987	2.79
425.344	2.78
425.701	2.78
426.058	2.79
426.415	2.79
426.772	2.78
427.128	2.78
427.485	2.79
427.842	2.8
428.199	2.81
428.555	2.81
428.912	2.8
429.269	2.81
429.625	2.83
429.982	2.85
430.338	2.85
430.695	2.82
431.051	2.81
431.407	2.77
431.764	2.78
432.12	2.77
432.476	2.74
432.832	2.73
433.189	2.74
433.545	2.73
433.901	2.76
434.257	2.76
434.613	2.77
434.969	2.76
435.325	2.77
435.681	2.77
436.036	2.77
436.392	2.77
436.748	2.77
437.104	2.79
437.459	2.77
437.815	2.77
438.171	2.8
438.526	2.78
438.882	2.79
439.237	2.78
439.593	2.79
439.948	2.78
440.304	2.78
440.659	2.78
441.014	2.78
441.369	2.75
441.725	2.76
442.08	2.75
442.435	2.75
442.79	2.73
443.145	2.72
443.5	2.72
443.855	2.71
444.21	2.71
444.565	2.69
444.92	2.69
445.275	2.69
445.629	2.69
445.984	2.7
446.339	2.7
446.693	2.72
447.048	2.72
447.403	2.72
447.757	2.72
448.112	2.74
448.466	2.75
448.82	2.76
449.175	2.74
449.529	2.77
449.883	2.77
450.238	2.78
450.592	2.79
450.946	2.81
451.3	2.83
451.654	2.81
452.008	2.81
452.362	2.82
452.716	2.81
453.07	2.81
453.424	2.82
453.778	2.82
454.132	2.77
454.486	2.78
454.839	2.77
455.193	2.78
455.547	2.78
455.9	2.78
456.254	2.79
456.607	2.79
456.961	2.78
457.314	2.8
457.668	2.8
458.021	2.79
458.375	2.77
458.728	2.77
459.081	2.8
459.434	2.82
459.787	2.83
460.141	2.84
460.494	2.83
460.847	2.83
461.2	2.85
461.553	2.88
461.906	2.88
462.259	2.87
462.611	2.87
462.964	2.86
463.317	2.85
463.67	2.85
464.022	2.85
464.375	2.87
464.728	2.85
465.08	2.84
465.433	2.83
465.785	2.85
466.138	2.84
466.49	2.8
466.843	2.83
467.195	2.82
467.547	2.8
467.899	2.83
468.252	2.83
468.604	2.81
468.956	2.8
469.308	2.77
469.66	2.82
470.012	2.81
470.364	2.8
470.716	2.84
471.068	2.83
471.42	2.85
471.772	2.84
472.123	2.88
472.475	2.88
472.827	2.9
473.178	2.9
473.53	2.92
473.882	2.94
474.233	2.93
474.585	2.94
474.936	2.95
475.288	2.95
475.639	2.98
475.99	2.99
476.342	2.99
476.693	3
477.044	2.98
477.395	2.98
477.746	2.98
478.097	2.97
478.448	2.97
478.8	2.97
479.15	2.98
479.501	2.96
479.852	2.98
480.203	3
480.554	3.01
480.905	3
481.255	2.99
481.606	3
481.957	2.99
482.307	2.99
482.658	2.99
483.009	3
483.359	3
483.709	3.01
484.06	3.02
484.41	3.02
484.761	3.03
485.111	3.03
485.461	3.03
485.811	3.04
486.162	3.04
486.512	3.03
486.862	3.04
487.212	3.05
487.562	3.04
487.912	3.04
488.262	3.04
488.612	3.04
488.961	3.04
489.311	3.04
489.661	3.05
490.011	3.03
490.36	3.02
490.71	3.02
491.06	3.01
491.409	3
491.759	3
492.108	2.99
492.458	3
492.807	3
493.157	3
493.506	3
493.855	3.01
494.204	3.01
494.554	3
494.903	3.01
495.252	3
495.601	3.02
495.95	3.02
496.299	3.01
496.648	3.01
496.997	2.99
497.346	3.02
497.695	3
498.043	3.03
498.392	3.03
498.741	3.06
499.09	3.08
499.438	3.1
499.787	3.08
500.135	3.07
500.484	3.06
500.832	3.04
501.181	3.03
501.529	3.04
501.878	3.05
502.226	3.06
502.574	3.05
502.923	3.04
503.271	3.05
503.619	3.07
503.967	3.07
504.315	3.1
504.663	3.08
505.011	3.11
505.359	3.09
505.707	3.06
506.055	3.03
506.403	3.02
506.751	3
507.098	3.03
507.446	3.04
507.794	3.04
508.141	3.04
508.489	3.06
508.837	3.04
509.184	3.05
509.531	3.06
509.879	3.07
510.226	3.1
510.574	3.11
510.921	3.09
511.268	3.09
511.616	3.1
511.963	3.09
512.31	3.1
512.657	3.09
513.004	3.09
513.351	3.1
513.698	3.09
514.045	3.1
514.392	3.09
514.739	3.09
515.086	3.11
515.432	3.13
515.779	3.12
516.126	3.15
516.473	3.15
516.819	3.13
517.166	3.13
517.512	3.13
517.859	3.12
518.205	3.11
518.552	3.11
518.898	3.1
519.245	3.13
519.591	3.14
519.937	3.16
520.283	3.19
520.629	3.2
520.976	3.2
521.322	3.2
521.668	3.2
522.014	3.21
522.36	3.21
522.706	3.2
523.052	3.2
523.398	3.17
523.743	3.16
524.089	3.18
524.435	3.16
524.781	3.18
525.126	3.19
525.472	3.21
525.817	3.22
526.163	3.22
526.509	3.23
526.854	3.22
527.199	3.22
527.545	3.22
527.89	3.23
528.235	3.24
528.581	3.26
528.926	3.26
529.271	3.27
529.616	3.27
529.961	3.28
530.306	3.28
530.651	3.27
530.996	3.29
531.341	3.29
531.686	3.3
532.031	3.3
532.376	3.3
532.721	3.31
533.065	3.31
533.41	3.3
533.755	3.3
534.099	3.3
534.444	3.31
534.788	3.3
535.133	3.3
535.477	3.3
535.822	3.28
536.166	3.28
536.51	3.29
536.855	3.29
537.199	3.27
537.543	3.27
537.887	3.29
538.231	3.28
538.576	3.27
538.92	3.29
539.264	3.26
539.608	3.27
539.951	3.28
540.295	3.29
540.639	3.3
540.983	3.3
541.327	3.32
541.671	3.33
542.014	3.34
542.358	3.33
542.701	3.33
543.045	3.33
543.389	3.33
543.732	3.31
544.075	3.31
544.419	3.33
544.762	3.34
545.105	3.34
545.449	3.34
545.792	3.34
546.135	3.33
546.478	3.33
546.821	3.34
547.165	3.31
547.508	3.3
547.851	3.31
548.194	3.29
548.536	3.26
548.879	3.26
549.222	3.25
549.565	3.24
549.908	3.26
550.25	3.26
550.593	3.25
550.936	3.27
551.278	3.26
551.621	3.24
551.963	3.22
552.306	3.22
552.648	3.22
552.991	3.22
553.333	3.21
553.675	3.21
554.017	3.19
554.36	3.19
554.702	3.15
555.044	3.16
555.386	3.19
555.728	3.2
556.07	3.18
556.412	3.16
556.754	3.16
557.096	3.17
557.438	3.16
557.78	3.17
558.121	3.17
558.463	3.19
558.805	3.19
559.147	3.18
559.488	3.17
559.83	3.19
560.171	3.2
560.513	3.19
560.854	3.22
561.196	3.24
561.537	3.26
561.878	3.33
562.22	3.29
562.561	3.31
562.902	3.33
563.243	3.34
563.584	3.36
563.925	3.39
564.266	3.38
564.607	3.4
564.948	3.41
565.289	3.39
565.63	3.37
565.971	3.39
566.312	3.42
566.653	3.4
566.993	3.39
567.334	3.39
567.675	3.44
568.015	3.42
568.356	3.41
568.696	3.41
569.037	3.38
569.377	3.41
569.718	3.41
570.058	3.39
570.398	3.36
570.739	3.35
571.079	3.32
571.419	3.34
571.759	3.33
572.099	3.29
572.439	3.32
572.779	3.34
573.119	3.33
573.459	3.32
573.799	3.33
574.139	3.32
574.479	3.28
574.819	3.28
575.158	3.31
575.498	3.3
575.838	3.29
576.177	3.27
576.517	3.25
576.856	3.26
577.196	3.27
577.535	3.29
577.875	3.29
578.214	3.31
578.553	3.26
578.893	3.24
579.232	3.28
579.571	3.24
579.91	3.26
580.25	3.23
580.589	3.23
580.928	3.21
581.267	3.24
581.606	3.29
581.945	3.27
582.283	3.26
582.622	3.23
582.961	3.26
583.3	3.31
583.639	3.31
583.977	3.33
584.316	3.36
584.654	3.36
584.993	3.38
585.332	3.43
585.67	3.48
586.008	3.48
586.347	3.5
586.685	3.47
587.024	3.44
587.362	3.43
587.7	3.44
588.038	3.48
588.376	3.5
588.715	3.47
589.053	3.46
589.391	3.47
589.729	3.49
590.067	3.51
590.404	3.47
590.742	3.49
591.08	3.47
591.418	3.44
591.756	3.48
592.093	3.44
592.431	3.39
592.769	3.38
593.106	3.39
593.444	3.38
593.781	3.45
594.119	3.47
594.456	3.5
594.793	3.5
595.131	3.55
595.468	3.56
595.805	3.55
596.143	3.55
596.48	3.53
596.817	3.54
597.154	3.49
597.491	3.52
597.828	3.49
598.165	3.45
598.502	3.43
598.839	3.43
599.176	3.46
599.512	3.44
599.849	3.45
600.186	3.46
600.523	3.45
600.859	3.42
601.196	3.43
601.532	3.43
601.869	3.41
602.205	3.33
602.542	3.31
602.878	3.31
603.215	3.37
603.551	3.41
603.887	3.42
604.223	3.45
604.56	3.46
604.896	3.5
605.232	3.51
605.568	3.54
605.904	3.53
606.24	3.51
606.576	3.54
606.912	3.53
607.248	3.53
607.583	3.54
607.919	3.56
608.255	3.56
608.591	3.55
608.926	3.53
609.262	3.55
609.597	3.53
609.933	3.55
610.268	3.54
610.604	3.5
610.939	3.49
611.275	3.45
611.61	3.39
611.945	3.36
612.281	3.38
612.616	3.39
612.951	3.41
613.286	3.4
613.621	3.39
613.956	3.43
614.291	3.38
614.626	3.37
614.961	3.37
615.296	3.33
615.631	3.39
615.966	3.45
616.3	3.48
616.635	3.5
616.97	3.48
617.304	3.44
617.639	3.5
617.973	3.45
618.308	3.51
618.642	3.5
618.977	3.54
619.311	3.51
619.646	3.53
619.98	3.47
620.314	3.48
620.648	3.48
620.983	3.44
621.317	3.46
621.651	3.47
621.985	3.48
622.319	3.5
622.653	3.48
622.987	3.45
623.321	3.41
623.655	3.39
623.988	3.41
624.322	3.43
624.656	3.41
624.99	3.46
625.323	3.44
625.657	3.52
625.99	3.51
626.324	3.5
626.657	3.43
626.991	3.46
627.324	3.47
627.658	3.47
627.991	3.5
628.324	3.47
628.657	3.46
628.991	3.47
629.324	3.49
629.657	3.47
629.99	3.5
630.323	3.52
630.656	3.5
630.989	3.51
631.322	3.47
631.655	3.44
631.987	3.45
632.32	3.49
632.653	3.44
632.986	3.44
633.318	3.48
633.651	3.52
633.984	3.51
634.316	3.5
634.649	3.55
634.981	3.48
635.313	3.56
635.646	3.61
635.978	3.62
636.31	3.57
636.643	3.57
636.975	3.54
637.307	3.51
637.639	3.56
637.971	3.45
638.303	3.48
638.635	3.52
638.967	3.52
639.299	3.44
639.631	3.44
639.963	3.41
640.295	3.39
640.626	3.36
640.958	3.38
641.29	3.34
641.621	3.28
641.953	3.29
642.285	3.22
642.616	3.22
642.948	3.15
643.279	3.16
643.61	3.19
643.942	3.26
644.273	3.32
644.604	3.33
644.936	3.45
645.267	3.37
645.598	3.4
645.929	3.35
646.26	3.36
646.591	3.38
646.922	3.41
647.253	3.36
647.584	3.4
647.915	3.4
648.245	3.5
648.576	3.52
648.907	3.57
649.238	3.6
649.568	3.53
649.899	3.48
650.229	3.52
650.56	3.48
650.89	3.42
651.221	3.46
651.551	3.41
651.882	3.38
652.212	3.47
652.542	3.47
652.872	3.48
653.203	3.54
653.533	3.55
653.863	3.53
654.193	3.63
654.523	3.62
654.853	3.68
655.183	3.65
655.513	3.68
655.843	3.73
656.172	3.74
656.502	3.76
656.832	3.8
657.162	3.81
657.491	3.88
657.821	3.85
658.15	3.76
658.48	3.83
658.809	3.82
659.139	3.86
659.468	3.82
659.798	3.87
660.127	3.83
660.456	3.78
660.785	3.77
661.115	3.72
661.444	3.7
661.773	3.64
662.102	3.59
662.431	3.57
662.76	3.58
663.089	3.52
663.418	3.57
663.747	3.57
664.076	3.51
664.404	3.53
664.733	3.55
665.062	3.62
665.39	3.53
665.719	3.52
666.048	3.48
666.376	3.43
666.705	3.42
667.033	3.42
667.362	3.42
667.69	3.41
668.018	3.47
668.347	3.46
668.675	3.49
669.003	3.49
669.331	3.47
669.659	3.31
669.987	3.37
670.315	3.35
670.643	3.42
670.971	3.54
671.299	3.46
671.627	3.48
671.955	3.42
672.283	3.45
672.61	3.54
672.938	3.59
673.266	3.64
673.593	3.58
673.921	3.55
674.249	3.59
674.576	3.64
674.904	3.64
675.231	3.65
675.558	3.67
675.886	3.73
676.213	3.73
676.54	3.82
676.867	3.78
677.195	3.86
677.522	3.8
677.849	3.7
678.176	3.65
678.503	3.6
678.83	3.61
679.157	3.59
679.484	3.61
679.81	3.57
680.137	3.64
680.464	3.73
680.791	3.8
681.117	3.79
681.444	3.76
681.771	3.82
682.097	3.83
682.424	3.74
682.75	3.74
683.077	3.77
683.403	3.77
683.729	3.77
684.056	3.72
684.382	3.72
684.708	3.69
685.034	3.79
685.36	3.79
685.686	3.84
686.012	3.88
686.339	3.76
686.664	3.71
686.99	3.61
687.316	3.66
687.642	3.58
687.968	3.73
688.294	3.64
688.619	3.58
688.945	3.58
689.271	3.62
689.596	3.54
689.922	3.47
690.247	3.46
690.573	3.49
690.898	3.52
691.224	3.55
691.549	3.58
691.874	3.48
692.2	3.5
692.525	3.39
692.85	3.46
693.175	3.51
693.5	3.45
693.825	3.56
694.15	3.55
694.475	3.54
694.8	3.39
695.125	3.54
695.45	3.54
695.775	3.58
696.099	3.7
696.424	3.81
696.749	3.91
697.073	3.95
697.398	3.88
697.723	3.83
698.047	3.87
698.372	3.92
698.696	3.98
699.02	4
699.345	4.15
699.669	4.11
699.993	3.99
700.318	4.07
700.642	4.03
700.966	4.03
701.29	4.04
701.614	4.12
701.938	4.09
702.262	4.06
702.586	4.02
702.91	3.84
703.234	3.79
703.557	3.73
703.881	3.62
704.205	3.85
704.529	3.83
704.852	3.84
705.176	3.78
705.499	3.68
705.823	3.7
706.146	3.64
706.47	3.69
706.793	3.92
707.117	4
707.44	3.94
707.763	3.83
708.086	3.87
708.409	3.77
708.733	3.64
709.056	3.6
709.379	3.84
709.702	3.89
710.025	3.84
710.348	3.96
710.671	4.07
710.993	3.93
711.316	4.02
711.639	3.88
711.962	3.94
712.284	4.04
712.607	3.92
712.93	3.68
713.252	3.55
713.575	3.56
713.897	3.46
714.22	3.53
714.542	3.53
714.864	3.49
715.187	3.5
715.509	3.63
715.831	3.78
716.153	3.53
716.475	3.52
716.798	3.44
717.12	3.29
717.442	3.34
717.764	3.35
718.085	3.24
718.407	3.37
718.729	3.35
719.051	3.29
719.373	3.49
719.695	3.7
720.016	3.82
720.338	3.57
720.659	3.57
720.981	3.43
721.302	3.5
721.624	3.46
721.945	3.6
722.267	3.66
722.588	3.46
722.909	3.5
723.231	3.54
723.552	3.63
723.873	3.68
724.194	3.38
724.515	3.41
724.836	3.26
725.157	3.16
725.478	3.06
725.799	3.11
726.12	3
726.441	2.93
726.762	2.95
727.083	3.05
727.403	3.02
727.724	3.22
728.045	3.09
728.365	3.2
728.686	3
729.006	3.11
729.327	3.17
729.647	3.15
729.967	3.3
730.288	3.36
730.608	3.44
730.928	3.68
731.249	3.79
731.569	4.05
731.889	4.04
732.209	4.01
732.529	3.99
732.849	3.99
733.169	4.05
733.489	3.92
733.809	4.04
734.129	4.11
734.448	3.95
734.768	4.02
735.088	3.85
735.408	3.79
735.727	3.82
736.047	3.84
736.366	3.76
736.686	3.64
737.005	3.66
737.325	3.5
737.644	3.38
737.963	3.23
738.283	3.06
738.602	3.03
738.921	3.39
739.24	3.61
739.56	3.52
739.879	3.4
740.198	3.5
740.517	3.46
740.836	3.43
741.155	3.42
741.473	3.34
741.792	3.62
742.111	3.94
742.43	3.92
742.748	4
743.067	4.06
743.386	3.98
743.704	3.85
744.023	4.05
744.341	4.11
744.66	4.07
744.978	3.84
745.297	4.14
745.615	3.64
745.933	3.6
746.252	3.69
746.57	3.88
746.888	3.89
747.206	3.75
747.524	3.93
747.842	3.77
748.16	3.86
748.478	3.89
748.796	3.87
749.114	3.93
749.432	3.7
749.749	3.75
750.067	3.74
750.385	3.68
750.703	3.38
751.02	3.56
751.338	3.51
751.655	3.85
751.973	3.36
752.29	3.51
752.608	3.4
752.925	3.52
753.242	3.59
753.56	3.31
753.877	3.46
754.194	3.38
754.511	3.57
754.828	3.36
755.145	3.23
755.462	2.87
755.779	2.55
756.096	2.8
756.413	2.83
756.73	2.77
757.047	2.88
757.364	3.33
757.68	3.05
757.997	2.99
758.314	3.12
758.63	3.55
758.947	3.55
759.264	3.53
759.58	3.32
759.896	3.45
760.213	3.68
760.529	3.68
760.846	3.83
761.162	4.01
761.478	4.1
761.794	4.32
762.11	4.51
762.426	4.44
762.743	4.41
763.059	4.47
763.375	4.53
763.69	4.69
764.006	4.77
764.322	5.05
764.638	5.29
764.954	5.29
765.27	5.36
765.585	5.6
765.901	5.46
766.216	5.49
766.532	5.44
766.848	5.56
767.163	5.59
767.478	5.42
767.794	5.35
768.109	5.64
768.424	5.53
768.74	5.37
769.055	5.74
769.37	5.42
769.685	5.18
770	5.36
770.315	5.25
770.63	4.83
770.945	4.72
771.26	4.3
771.575	3.95
771.89	3.49
772.205	2.93
772.52	2.75
772.834	2.86
773.149	2.46
773.464	2.58
773.778	2.45
774.093	2.5
774.407	2.69
774.722	2.16
775.036	2.01
775.351	2.54
775.665	2.11
775.979	2.72
776.293	3.03
776.608	2.81
776.922	2.59
777.236	2.62
777.55	2.19
777.864	2.53
778.178	2.75
778.492	2.83
778.806	3.16
779.12	3.68
779.434	3.42
779.747	3.44
780.061	3.13
780.375	3.46
780.689	3.41
781.002	2.93
781.316	3.14
781.629	2.96
781.943	2.54
782.256	2.27
782.57	2.05
782.883	1.85
783.196	2.17
783.51	2.3
783.823	2.09
784.136	2.03
784.449	1.85
784.762	1.56
785.075	1.64
785.388	1.23
785.701	1.15
786.014	1.65
786.327	2.12
786.64	2.23
786.953	2.33
787.266	2.38
787.578	2.75
787.891	3.17
788.204	3.27
788.516	3.41
788.829	3.64
789.141	3.58
789.454	3.58
789.766	3.68
790.079	3.47
790.391	3.66
790.703	3.74
791.016	3.74
791.328	4.19
791.64	4.17
791.952	4.49
792.264	4.28
792.576	3.9
792.888	3.46
793.2	3.46
793.512	3.57
793.824	3.2
794.136	3.13
794.448	2.67
794.76	2.56
795.071	2.57
795.383	3.09
795.695	3.21
796.006	3.47
796.318	3.31
796.629	3.06
796.941	3.19
797.252	3.23
797.564	3.78
797.875	3.21
798.186	3.22
798.497	3.21
798.809	3.48
799.12	3.79
799.431	4.4
799.742	4.38
800.053	3.95
800.364	4.6
800.675	4.43
800.986	4.39
801.297	4.36
801.608	3.94
801.918	3.5
802.229	3.75
802.54	3.39
802.851	3.47
803.161	3.93
803.472	3.58
803.782	4.07
804.093	3.64
804.403	4.24
804.714	4.32
805.024	4.36
805.334	4.07
805.645	4.3
805.955	3.86
806.265	3.75
806.575	3.68
806.885	3.5
807.195	3.41
807.505	3.35
807.815	3.64
808.125	3.75
808.435	3.62
808.745	3.14
809.055	3.44
809.365	3.02
809.674	2.98
809.984	3.41
810.294	3.02
810.603	2.41
810.913	2.1
811.222	2.03
811.532	1.85
811.841	1.62
812.151	0.91
812.46	1.04
812.769	1.2
813.079	1.59
813.388	1.35
813.697	0.22
814.006	0.32
814.315	0.13
814.624	0.72
814.933	1.13
815.242	1.68
815.551	1.66
815.86	2.58
816.169	2.69
816.478	2.5
816.786	2.31
817.095	2.71
817.404	3.01
817.712	3.31
818.021	4.32
818.33	4.51
818.638	5.06
818.947	5.01
819.255	5.17
819.563	5.06
819.872	5.24
820.18	6.27
820.488	6.44
820.796	6.3
821.105	6.19
821.413	6.15
821.721	6.03
822.029	5.99
822.337	5.93
822.645	6.03
822.953	6.17
823.26	6.15
823.568	6.2
823.876	6.28
824.184	6.29
824.491	5.89
824.799	5.98
825.107	5.82
825.414	5.92
825.722	5.81
826.029	5.86
826.337	5.86
826.644	5.76
826.951	5.68
827.259	5.87
827.566	5.81
827.873	5.7
828.18	5.72
828.488	5.71
828.795	5.52
829.102	5.55
829.409	5.16
829.716	5.33
830.023	5.19
830.329	4.84
830.636	4.63
830.943	4.88
831.25	4.93
831.557	5
831.863	4.91
832.17	5.33
832.476	5.26
832.783	5.44
833.089	5.18
833.396	5.26
833.702	5.16
834.009	5
834.315	4.84
834.621	4.61
834.928	4.52
835.234	4.52
835.54	4.18
835.846	4.72
836.152	4.19
836.458	4.05
836.764	4.28
837.07	4.34
837.376	4.61
837.682	3.97
837.988	4.3
838.293	3.89
838.599	3.15
838.905	2.32
839.211	1.85
839.516	1.86
839.822	2.3
840.127	2.52
840.433	3.12
840.738	3.44
841.044	3.67
841.349	4.04
841.654	3.42
841.959	3.68
842.265	2.75
842.57	2.81
842.875	3.4
843.18	3.13
843.485	2.34
843.79	1.27
844.095	2.33
844.4	1.73
844.705	2.5
845.01	2.77
845.315	3.28
845.619	2.95
845.924	3.5
846.229	2.12
846.533	1.26
846.838	0.18
847.142	-0.64
847.447	-1.65
847.751	-2.27
848.056	-1.42
848.36	-2.43
848.664	-1.35
848.969	-1
849.273	-1.91
849.577	-1.68
849.881	-1.82
850.185	-2.16
850.489	-2.78
850.794	-1.84
851.097	-1.9
851.401	-1.27
851.705	-0.67
852.009	-0.92
852.313	-2.83
852.617	-2.43
852.92	-3.27
853.224	-4.87
853.528	-5.63
853.831	-3.36
854.135	-4.59
854.438	-5.55
854.742	-4.33
855.045	-7.2
855.349	-7.57
855.652	-7.28
855.955	-6.78
856.259	-5.39
856.562	-4.53
856.865	-5.41
857.168	-6.65
857.471	-7.51
857.774	-8.3
858.077	-10.66
858.38	-9.96
858.683	-9.41
858.986	-8.96
859.289	-7.74
859.592	-5.73
859.894	-2.95
860.197	-3.18
860.5	-1.73
860.802	-1.73
861.105	-2.16
861.407	-0.76
861.71	1.81
862.012	1.76
862.315	2.21
862.617	1.46
862.919	2.79
863.222	3.91
863.524	3.19
863.826	2.56
864.128	4.73
864.43	8.91
864.732	9.77
865.034	8.85
865.336	4.87
865.638	5.73
865.94	4.92
866.242	3.11
866.544	1.56
866.846	1.3
867.147	0.79
867.449	-0.33
867.751	-0.03
868.052	-1.86
868.354	-1.5
868.655	-2.97
868.957	-3.04
869.258	-3.73
869.56	-2.39
869.861	-3.74
870.162	-3.57
870.463	-6.32
870.765	-7.99
871.066	-8.85
871.367	-7.88
871.668	-4.64
871.969	-8.46
872.27	-6.24
872.571	-6.52
872.872	-8.15
873.173	-8.62
873.473	-8
873.774	-8.58
874.075	-10.98
874.376	-11.27
874.676	-9.94
874.977	-9.98
875.277	-8.19
875.578	-7.52
875.878	-9.62
876.179	-7.64
876.479	-7.71
876.78	-7.16
877.08	-7.9
877.38	-9.36
877.68	-10.18
877.981	-11.26
878.281	-7.04
878.581	-11.47
