Data from UWBM37214_Reflection_00006.txt Node
Date: Sun May 02 14:03:59 EDT 2021
User: vgr7
Spectrometer: USB2G7710
Scans to average: 10
Trigger mode: 4
Integration Time (sec): 1.000000E-1
Electric dark correction enabled: true
Boxcar width: 20
XAxis mode: Wavelengths
Number of Pixels in Spectrum: 2048
>>>>>Begin Spectral Data<<<<<
177.721	331.58
178.105	569.49
178.488	-6420
178.871	862.5
179.254	287.86
179.636	164.01
180.019	95.89
180.402	77.75
180.785	60
181.168	54.13
181.55	47.61
181.933	42.28
182.316	27.58
182.698	20.3
183.081	16.09
183.463	13.47
183.846	8.77
184.228	12.8
184.611	12.03
184.993	11.83
185.376	14.05
185.758	15.23
186.14	17.18
186.522	14.91
186.904	14.49
187.287	15.97
187.669	16.61
188.051	13.35
188.433	12.72
188.815	9.83
189.197	11.36
189.579	12.29
189.961	12.09
190.342	11.48
190.724	10.88
191.106	12.73
191.488	12.48
191.869	12.86
192.251	9.73
192.633	8.12
193.014	7.87
193.396	4.56
193.777	6.19
194.159	7.68
194.54	4.94
194.922	4.13
195.303	3.84
195.684	1.82
196.065	0.93
196.447	1.61
196.828	0.49
197.209	-0.76
197.59	-2.66
197.971	-0.41
198.352	1.86
198.733	2.05
199.114	1.73
199.495	3.36
199.876	2
200.257	3.07
200.638	2.55
201.018	2.6
201.399	3.23
201.78	2.36
202.16	2.71
202.541	2.86
202.922	2.54
203.302	3.13
203.683	3.41
204.063	3.41
204.444	3.36
204.824	1.98
205.204	1.09
205.585	2.13
205.965	2.56
206.345	1.69
206.725	1.51
207.106	1.45
207.486	1.24
207.866	3.07
208.246	3.23
208.626	3.02
209.006	3.6
209.386	1.82
209.766	0.3
210.145	2.19
210.525	0.73
210.905	2.68
211.285	2.01
211.664	2.03
212.044	1.17
212.424	1.17
212.803	1.62
213.183	2.65
213.562	2.7
213.942	2.33
214.321	1.6
214.701	1.31
215.08	1.13
215.459	1.06
215.838	-0.24
216.218	-0.68
216.597	-1.39
216.976	-1.63
217.355	-1.31
217.734	-0.92
218.113	-1.34
218.492	-1.38
218.871	-2.09
219.25	-2.16
219.629	-2.33
220.008	-1.5
220.387	-2.29
220.766	-1.31
221.144	-1.27
221.523	-0.66
221.902	-0.01
222.28	-0.57
222.659	-0.58
223.037	-1.01
223.416	-0.68
223.794	-0.36
224.173	-0.29
224.551	-0.04
224.929	1.51
225.308	1.75
225.686	1.61
226.064	2.18
226.442	1.68
226.821	2.79
227.199	3.16
227.577	3.08
227.955	3.32
228.333	3.23
228.711	3.22
229.089	3
229.467	2.9
229.845	3.31
230.222	3.43
230.6	3.5
230.978	3.58
231.356	3.9
231.733	3.89
232.111	3.84
232.488	3.82
232.866	3.54
233.243	3.21
233.621	3.19
233.998	3.29
234.376	3.35
234.753	3.27
235.13	3.47
235.508	3.56
235.885	3.64
236.262	3.67
236.639	3.61
237.016	3.57
237.393	3.6
237.77	3.69
238.147	3.75
238.524	3.75
238.901	3.69
239.278	3.7
239.655	3.77
240.032	3.77
240.409	3.76
240.785	3.82
241.162	3.86
241.539	3.88
241.915	3.96
242.292	3.95
242.668	3.94
243.045	3.93
243.421	3.89
243.798	3.9
244.174	3.94
244.551	3.98
244.927	3.96
245.303	3.95
245.679	3.95
246.056	3.9
246.432	3.92
246.808	3.88
247.184	3.91
247.56	3.93
247.936	3.93
248.312	3.94
248.688	3.93
249.064	3.92
249.44	3.91
249.815	3.89
250.191	3.86
250.567	3.87
250.943	3.85
251.318	3.85
251.694	3.84
252.069	3.82
252.445	3.84
252.82	3.82
253.196	3.81
253.571	3.78
253.947	3.8
254.322	3.8
254.697	3.79
255.073	3.76
255.448	3.78
255.823	3.73
256.198	3.71
256.573	3.68
256.948	3.67
257.323	3.63
257.698	3.58
258.073	3.56
258.448	3.55
258.823	3.53
259.198	3.53
259.573	3.5
259.948	3.5
260.322	3.5
260.697	3.49
261.072	3.48
261.446	3.49
261.821	3.47
262.195	3.46
262.57	3.44
262.944	3.43
263.319	3.44
263.693	3.43
264.067	3.46
264.442	3.46
264.816	3.44
265.19	3.44
265.564	3.47
265.938	3.46
266.313	3.45
266.687	3.44
267.061	3.43
267.435	3.43
267.809	3.43
268.183	3.43
268.556	3.42
268.93	3.42
269.304	3.41
269.678	3.4
270.051	3.4
270.425	3.38
270.799	3.35
271.172	3.37
271.546	3.36
271.919	3.38
272.293	3.38
272.666	3.38
273.04	3.39
273.413	3.42
273.787	3.43
274.16	3.43
274.533	3.42
274.906	3.42
275.279	3.4
275.653	3.41
276.026	3.42
276.399	3.42
276.772	3.45
277.145	3.45
277.518	3.46
277.891	3.48
278.263	3.47
278.636	3.47
279.009	3.46
279.382	3.44
279.755	3.45
280.127	3.46
280.5	3.46
280.872	3.47
281.245	3.45
281.617	3.46
281.99	3.46
282.362	3.46
282.735	3.46
283.107	3.44
283.479	3.42
283.852	3.43
284.224	3.44
284.596	3.44
284.968	3.44
285.34	3.45
285.713	3.47
286.085	3.49
286.457	3.49
286.829	3.48
287.201	3.47
287.572	3.47
287.944	3.46
288.316	3.46
288.688	3.45
289.06	3.46
289.431	3.47
289.803	3.48
290.175	3.49
290.546	3.49
290.918	3.5
291.289	3.49
291.661	3.5
292.032	3.48
292.403	3.48
292.775	3.48
293.146	3.46
293.517	3.48
293.889	3.47
294.26	3.48
294.631	3.5
295.002	3.51
295.373	3.5
295.744	3.5
296.115	3.49
296.486	3.5
296.857	3.5
297.228	3.5
297.599	3.51
297.97	3.5
298.34	3.51
298.711	3.53
299.082	3.52
299.452	3.52
299.823	3.53
300.194	3.53
300.564	3.53
300.935	3.52
301.305	3.51
301.676	3.5
302.046	3.52
302.416	3.52
302.787	3.51
303.157	3.5
303.527	3.5
303.897	3.49
304.267	3.49
304.637	3.48
305.008	3.48
305.378	3.47
305.748	3.48
306.117	3.47
306.487	3.47
306.857	3.46
307.227	3.46
307.597	3.46
307.967	3.45
308.336	3.45
308.706	3.44
309.076	3.43
309.445	3.43
309.815	3.41
310.184	3.4
310.554	3.4
310.923	3.41
311.293	3.41
311.662	3.4
312.031	3.38
312.401	3.38
312.77	3.37
313.139	3.38
313.508	3.38
313.877	3.38
314.246	3.37
314.616	3.36
314.985	3.35
315.353	3.35
315.722	3.33
316.091	3.33
316.46	3.31
316.829	3.3
317.198	3.29
317.567	3.29
317.935	3.31
318.304	3.31
318.672	3.29
319.041	3.29
319.41	3.28
319.778	3.27
320.147	3.26
320.515	3.24
320.883	3.22
321.252	3.21
321.62	3.19
321.988	3.19
322.357	3.19
322.725	3.17
323.093	3.16
323.461	3.15
323.829	3.16
324.197	3.16
324.565	3.15
324.933	3.16
325.301	3.16
325.669	3.15
326.037	3.14
326.405	3.14
326.772	3.12
327.14	3.1
327.508	3.09
327.875	3.09
328.243	3.08
328.61	3.06
328.978	3.05
329.346	3.05
329.713	3.07
330.08	3.07
330.448	3.04
330.815	3.05
331.182	3.04
331.55	3.05
331.917	3.05
332.284	3.04
332.651	3.04
333.018	3.03
333.385	3.03
333.752	3.04
334.119	3.04
334.486	3.04
334.853	3.03
335.22	3.04
335.587	3.04
335.954	3.04
336.32	3.04
336.687	3.05
337.054	3.05
337.42	3.05
337.787	3.06
338.153	3.06
338.52	3.06
338.886	3.04
339.253	3.04
339.619	3.06
339.986	3.05
340.352	3.05
340.718	3.05
341.084	3.05
341.451	3.05
341.817	3.06
342.183	3.07
342.549	3.08
342.915	3.09
343.281	3.09
343.647	3.1
344.013	3.1
344.379	3.1
344.745	3.09
345.11	3.09
345.476	3.1
345.842	3.11
346.208	3.11
346.573	3.1
346.939	3.1
347.304	3.12
347.67	3.1
348.035	3.1
348.401	3.09
348.766	3.09
349.132	3.09
349.497	3.1
349.862	3.11
350.228	3.1
350.593	3.11
350.958	3.11
351.323	3.11
351.688	3.12
352.053	3.12
352.418	3.13
352.783	3.13
353.148	3.13
353.513	3.14
353.878	3.14
354.243	3.14
354.608	3.14
354.972	3.14
355.337	3.14
355.702	3.14
356.066	3.15
356.431	3.15
356.795	3.15
357.16	3.15
357.524	3.15
357.889	3.15
358.253	3.14
358.618	3.13
358.982	3.13
359.346	3.14
359.71	3.14
360.075	3.15
360.439	3.14
360.803	3.14
361.167	3.13
361.531	3.14
361.895	3.14
362.259	3.12
362.623	3.13
362.987	3.13
363.351	3.14
363.714	3.15
364.078	3.14
364.442	3.14
364.806	3.13
365.169	3.13
365.533	3.14
365.896	3.14
366.26	3.15
366.623	3.14
366.987	3.14
367.35	3.13
367.714	3.14
368.077	3.14
368.44	3.13
368.803	3.13
369.167	3.13
369.53	3.12
369.893	3.12
370.256	3.12
370.619	3.12
370.982	3.13
371.345	3.12
371.708	3.13
372.071	3.13
372.434	3.14
372.797	3.14
373.159	3.14
373.522	3.15
373.885	3.15
374.247	3.15
374.61	3.15
374.973	3.15
375.335	3.15
375.698	3.15
376.06	3.15
376.423	3.15
376.785	3.15
377.147	3.15
377.51	3.15
377.872	3.15
378.234	3.14
378.596	3.14
378.958	3.14
379.321	3.14
379.683	3.15
380.045	3.15
380.407	3.14
380.769	3.14
381.13	3.13
381.492	3.14
381.854	3.14
382.216	3.14
382.578	3.14
382.939	3.15
383.301	3.15
383.663	3.15
384.024	3.15
384.386	3.16
384.747	3.16
385.109	3.15
385.47	3.15
385.832	3.14
386.193	3.14
386.554	3.14
386.916	3.14
387.277	3.13
387.638	3.13
387.999	3.13
388.36	3.13
388.721	3.13
389.082	3.13
389.443	3.13
389.804	3.13
390.165	3.13
390.526	3.13
390.887	3.13
391.248	3.13
391.609	3.13
391.969	3.14
392.33	3.14
392.691	3.14
393.051	3.14
393.412	3.14
393.772	3.14
394.133	3.14
394.493	3.14
394.854	3.14
395.214	3.14
395.574	3.14
395.935	3.15
396.295	3.14
396.655	3.14
397.015	3.14
397.376	3.14
397.736	3.14
398.096	3.14
398.456	3.15
398.816	3.16
399.176	3.15
399.535	3.16
399.895	3.16
400.255	3.17
400.615	3.17
400.975	3.17
401.334	3.18
401.694	3.18
402.054	3.19
402.413	3.19
402.773	3.19
403.132	3.19
403.492	3.2
403.851	3.2
404.211	3.2
404.57	3.21
404.929	3.21
405.288	3.21
405.648	3.21
406.007	3.21
406.366	3.21
406.725	3.21
407.084	3.22
407.443	3.22
407.802	3.22
408.161	3.23
408.52	3.23
408.879	3.23
409.238	3.23
409.596	3.24
409.955	3.25
410.314	3.25
410.673	3.26
411.031	3.26
411.39	3.27
411.748	3.28
412.107	3.28
412.465	3.3
412.824	3.32
413.182	3.34
413.54	3.36
413.899	3.38
414.257	3.41
414.615	3.45
414.974	3.48
415.332	3.51
415.69	3.54
416.048	3.57
416.406	3.61
416.764	3.63
417.122	3.66
417.48	3.69
417.838	3.72
418.195	3.74
418.553	3.76
418.911	3.78
419.269	3.78
419.626	3.79
419.984	3.78
420.342	3.78
420.699	3.77
421.057	3.75
421.414	3.74
421.772	3.73
422.129	3.72
422.486	3.72
422.844	3.72
423.201	3.72
423.558	3.72
423.915	3.73
424.273	3.72
424.63	3.72
424.987	3.72
425.344	3.73
425.701	3.73
426.058	3.73
426.415	3.73
426.772	3.73
427.128	3.73
427.485	3.73
427.842	3.72
428.199	3.71
428.555	3.69
428.912	3.68
429.269	3.65
429.625	3.64
429.982	3.61
430.338	3.59
430.695	3.57
431.051	3.54
431.407	3.53
431.764	3.51
432.12	3.5
432.476	3.49
432.832	3.48
433.189	3.48
433.545	3.49
433.901	3.5
434.257	3.52
434.613	3.54
434.969	3.56
435.325	3.59
435.681	3.63
436.036	3.64
436.392	3.66
436.748	3.68
437.104	3.69
437.459	3.7
437.815	3.72
438.171	3.74
438.526	3.76
438.882	3.79
439.237	3.82
439.593	3.86
439.948	3.88
440.304	3.92
440.659	3.94
441.014	3.96
441.369	3.98
441.725	4
442.08	4.01
442.435	4.02
442.79	4.03
443.145	4.04
443.5	4.04
443.855	4.04
444.21	4.04
444.565	4.04
444.92	4.03
445.275	4.03
445.629	4.02
445.984	4.01
446.339	4
446.693	3.99
447.048	3.98
447.403	3.97
447.757	3.95
448.112	3.93
448.466	3.91
448.82	3.89
449.175	3.87
449.529	3.85
449.883	3.84
450.238	3.82
450.592	3.81
450.946	3.8
451.3	3.81
451.654	3.82
452.008	3.82
452.362	3.83
452.716	3.83
453.07	3.83
453.424	3.82
453.778	3.82
454.132	3.81
454.486	3.8
454.839	3.78
455.193	3.77
455.547	3.76
455.9	3.74
456.254	3.72
456.607	3.7
456.961	3.67
457.314	3.65
457.668	3.64
458.021	3.64
458.375	3.63
458.728	3.63
459.081	3.63
459.434	3.63
459.787	3.64
460.141	3.65
460.494	3.65
460.847	3.66
461.2	3.66
461.553	3.67
461.906	3.67
462.259	3.67
462.611	3.68
462.964	3.68
463.317	3.68
463.67	3.68
464.022	3.69
464.375	3.69
464.728	3.69
465.08	3.69
465.433	3.69
465.785	3.69
466.138	3.67
466.49	3.65
466.843	3.63
467.195	3.61
467.547	3.59
467.899	3.57
468.252	3.54
468.604	3.52
468.956	3.5
469.308	3.48
469.66	3.48
470.012	3.47
470.364	3.47
470.716	3.47
471.068	3.48
471.42	3.5
471.772	3.51
472.123	3.52
472.475	3.53
472.827	3.54
473.178	3.54
473.53	3.55
473.882	3.57
474.233	3.58
474.585	3.61
474.936	3.67
475.288	3.75
475.639	3.85
475.99	3.96
476.342	4.09
476.693	4.23
477.044	4.37
477.395	4.52
477.746	4.68
478.097	4.83
478.448	4.98
478.8	5.14
479.15	5.28
479.501	5.41
479.852	5.53
480.203	5.65
480.554	5.76
480.905	5.86
481.255	5.96
481.606	6.06
481.957	6.15
482.307	6.23
482.658	6.32
483.009	6.39
483.359	6.47
483.709	6.55
484.06	6.62
484.41	6.68
484.761	6.75
485.111	6.82
485.461	6.88
485.811	6.94
486.162	6.99
486.512	7.04
486.862	7.07
487.212	7.1
487.562	7.11
487.912	7.13
488.262	7.13
488.612	7.13
488.961	7.11
489.311	7.07
489.661	7.01
490.011	6.93
490.36	6.84
490.71	6.74
491.06	6.62
491.409	6.5
491.759	6.37
492.108	6.23
492.458	6.09
492.807	5.94
493.157	5.8
493.506	5.65
493.855	5.52
494.204	5.4
494.554	5.27
494.903	5.16
495.252	5.05
495.601	4.95
495.95	4.84
496.299	4.74
496.648	4.65
496.997	4.57
497.346	4.48
497.695	4.4
498.043	4.32
498.392	4.25
498.741	4.17
499.09	4.1
499.438	4.03
499.787	3.97
500.135	3.91
500.484	3.85
500.832	3.81
501.181	3.77
501.529	3.74
501.878	3.73
502.226	3.71
502.574	3.71
502.923	3.7
503.271	3.7
503.619	3.69
503.967	3.69
504.315	3.69
504.663	3.68
505.011	3.67
505.359	3.66
505.707	3.66
506.055	3.65
506.403	3.65
506.751	3.65
507.098	3.65
507.446	3.65
507.794	3.65
508.141	3.65
508.489	3.66
508.837	3.67
509.184	3.68
509.531	3.69
509.879	3.69
510.226	3.7
510.574	3.72
510.921	3.73
511.268	3.74
511.616	3.76
511.963	3.78
512.31	3.79
512.657	3.81
513.004	3.83
513.351	3.84
513.698	3.85
514.045	3.86
514.392	3.86
514.739	3.86
515.086	3.86
515.432	3.85
515.779	3.85
516.126	3.84
516.473	3.84
516.819	3.84
517.166	3.84
517.512	3.85
517.859	3.85
518.205	3.87
518.552	3.89
518.898	3.91
519.245	3.94
519.591	3.99
519.937	4.05
520.283	4.13
520.629	4.21
520.976	4.31
521.322	4.4
521.668	4.5
522.014	4.61
522.36	4.71
522.706	4.82
523.052	4.92
523.398	5.01
523.743	5.09
524.089	5.16
524.435	5.22
524.781	5.27
525.126	5.32
525.472	5.37
525.817	5.42
526.163	5.46
526.509	5.5
526.854	5.53
527.199	5.57
527.545	5.61
527.89	5.65
528.235	5.69
528.581	5.73
528.926	5.76
529.271	5.79
529.616	5.82
529.961	5.85
530.306	5.88
530.651	5.9
530.996	5.92
531.341	5.93
531.686	5.94
532.031	5.94
532.376	5.94
532.721	5.94
533.065	5.94
533.41	5.94
533.755	5.94
534.099	5.93
534.444	5.9
534.788	5.88
535.133	5.84
535.477	5.8
535.822	5.75
536.166	5.71
536.51	5.65
536.855	5.58
537.199	5.51
537.543	5.44
537.887	5.38
538.231	5.33
538.576	5.28
538.92	5.23
539.264	5.18
539.608	5.13
539.951	5.08
540.295	5.02
540.639	4.97
540.983	4.91
541.327	4.85
541.671	4.8
542.014	4.74
542.358	4.69
542.701	4.65
543.045	4.62
543.389	4.6
543.732	4.58
544.075	4.56
544.419	4.54
544.762	4.53
545.105	4.52
545.449	4.51
545.792	4.5
546.135	4.49
546.478	4.47
546.821	4.45
547.165	4.43
547.508	4.39
547.851	4.35
548.194	4.3
548.536	4.25
548.879	4.19
549.222	4.14
549.565	4.08
549.908	4.02
550.25	3.96
550.593	3.9
550.936	3.86
551.278	3.82
551.621	3.79
551.963	3.77
552.306	3.75
552.648	3.73
552.991	3.71
553.333	3.7
553.675	3.69
554.017	3.68
554.36	3.68
554.702	3.68
555.044	3.69
555.386	3.7
555.728	3.72
556.07	3.72
556.412	3.74
556.754	3.74
557.096	3.74
557.438	3.74
557.78	3.74
558.121	3.74
558.463	3.74
558.805	3.74
559.147	3.74
559.488	3.74
559.83	3.74
560.171	3.75
560.513	3.75
560.854	3.75
561.196	3.75
561.537	3.75
561.878	3.75
562.22	3.75
562.561	3.75
562.902	3.75
563.243	3.75
563.584	3.75
563.925	3.75
564.266	3.75
564.607	3.76
564.948	3.76
565.289	3.76
565.63	3.77
565.971	3.77
566.312	3.77
566.653	3.78
566.993	3.78
567.334	3.78
567.675	3.79
568.015	3.79
568.356	3.79
568.696	3.79
569.037	3.79
569.377	3.79
569.718	3.79
570.058	3.8
570.398	3.79
570.739	3.8
571.079	3.8
571.419	3.8
571.759	3.8
572.099	3.8
572.439	3.8
572.779	3.8
573.119	3.8
573.459	3.8
573.799	3.8
574.139	3.8
574.479	3.8
574.819	3.81
575.158	3.81
575.498	3.81
575.838	3.81
576.177	3.81
576.517	3.81
576.856	3.81
577.196	3.81
577.535	3.81
577.875	3.81
578.214	3.81
578.553	3.81
578.893	3.81
579.232	3.8
579.571	3.8
579.91	3.8
580.25	3.79
580.589	3.79
580.928	3.79
581.267	3.78
581.606	3.79
581.945	3.79
582.283	3.79
582.622	3.79
582.961	3.78
583.3	3.79
583.639	3.79
583.977	3.79
584.316	3.79
584.654	3.79
584.993	3.78
585.332	3.78
585.67	3.78
586.008	3.78
586.347	3.78
586.685	3.78
587.024	3.79
587.362	3.79
587.7	3.79
588.038	3.79
588.376	3.79
588.715	3.79
589.053	3.79
589.391	3.8
589.729	3.8
590.067	3.8
590.404	3.8
590.742	3.81
591.08	3.81
591.418	3.81
591.756	3.82
592.093	3.82
592.431	3.82
592.769	3.82
593.106	3.83
593.444	3.83
593.781	3.83
594.119	3.83
594.456	3.83
594.793	3.84
595.131	3.84
595.468	3.84
595.805	3.84
596.143	3.84
596.48	3.84
596.817	3.84
597.154	3.84
597.491	3.84
597.828	3.84
598.165	3.85
598.502	3.85
598.839	3.85
599.176	3.86
599.512	3.86
599.849	3.86
600.186	3.86
600.523	3.87
600.859	3.87
601.196	3.87
601.532	3.88
601.869	3.88
602.205	3.88
602.542	3.88
602.878	3.88
603.215	3.88
603.551	3.88
603.887	3.88
604.223	3.88
604.56	3.88
604.896	3.89
605.232	3.89
605.568	3.89
605.904	3.9
606.24	3.9
606.576	3.9
606.912	3.89
607.248	3.89
607.583	3.9
607.919	3.9
608.255	3.9
608.591	3.9
608.926	3.9
609.262	3.9
609.597	3.9
609.933	3.9
610.268	3.9
610.604	3.9
610.939	3.9
611.275	3.9
611.61	3.9
611.945	3.9
612.281	3.9
612.616	3.9
612.951	3.89
613.286	3.89
613.621	3.89
613.956	3.89
614.291	3.89
614.626	3.9
614.961	3.89
615.296	3.89
615.631	3.9
615.966	3.9
616.3	3.91
616.635	3.9
616.97	3.9
617.304	3.91
617.639	3.91
617.973	3.91
618.308	3.91
618.642	3.91
618.977	3.91
619.311	3.91
619.646	3.91
619.98	3.91
620.314	3.92
620.648	3.92
620.983	3.92
621.317	3.93
621.651	3.93
621.985	3.93
622.319	3.94
622.653	3.95
622.987	3.95
623.321	3.96
623.655	3.96
623.988	3.96
624.322	3.97
624.656	3.98
624.99	3.99
625.323	3.99
625.657	3.99
625.99	3.99
626.324	3.99
626.657	3.99
626.991	4
627.324	4
627.658	4
627.991	4
628.324	4
628.657	4
628.991	4.01
629.324	4.01
629.657	4.01
629.99	4.01
630.323	4.01
630.656	4.01
630.989	4.01
631.322	4.01
631.655	4.02
631.987	4.02
632.32	4.02
632.653	4.03
632.986	4.04
633.318	4.04
633.651	4.04
633.984	4.04
634.316	4.04
634.649	4.04
634.981	4.04
635.313	4.05
635.646	4.05
635.978	4.05
636.31	4.05
636.643	4.06
636.975	4.06
637.307	4.06
637.639	4.06
637.971	4.06
638.303	4.06
638.635	4.06
638.967	4.06
639.299	4.05
639.631	4.06
639.963	4.07
640.295	4.07
640.626	4.07
640.958	4.07
641.29	4.08
641.621	4.09
641.953	4.09
642.285	4.09
642.616	4.09
642.948	4.09
643.279	4.1
643.61	4.11
643.942	4.12
644.273	4.12
644.604	4.12
644.936	4.13
645.267	4.13
645.598	4.12
645.929	4.13
646.26	4.14
646.591	4.14
646.922	4.14
647.253	4.14
647.584	4.14
647.915	4.14
648.245	4.14
648.576	4.16
648.907	4.16
649.238	4.16
649.568	4.16
649.899	4.15
650.229	4.15
650.56	4.15
650.89	4.16
651.221	4.16
651.551	4.16
651.882	4.17
652.212	4.17
652.542	4.18
652.872	4.19
653.203	4.19
653.533	4.19
653.863	4.19
654.193	4.2
654.523	4.21
654.853	4.21
655.183	4.22
655.513	4.22
655.843	4.23
656.172	4.23
656.502	4.25
656.832	4.24
657.162	4.24
657.491	4.25
657.821	4.24
658.15	4.25
658.48	4.25
658.809	4.25
659.139	4.26
659.468	4.26
659.798	4.26
660.127	4.26
660.456	4.27
660.785	4.27
661.115	4.28
661.444	4.29
661.773	4.3
662.102	4.3
662.431	4.3
662.76	4.31
663.089	4.32
663.418	4.33
663.747	4.34
664.076	4.35
664.404	4.35
664.733	4.36
665.062	4.37
665.39	4.37
665.719	4.37
666.048	4.38
666.376	4.39
666.705	4.39
667.033	4.4
667.362	4.41
667.69	4.42
668.018	4.42
668.347	4.42
668.675	4.42
669.003	4.43
669.331	4.43
669.659	4.43
669.987	4.43
670.315	4.43
670.643	4.44
670.971	4.44
671.299	4.45
671.627	4.45
671.955	4.45
672.283	4.45
672.61	4.46
672.938	4.46
673.266	4.47
673.593	4.47
673.921	4.47
674.249	4.48
674.576	4.48
674.904	4.48
675.231	4.48
675.558	4.49
675.886	4.49
676.213	4.5
676.54	4.5
676.867	4.5
677.195	4.5
677.522	4.5
677.849	4.5
678.176	4.5
678.503	4.5
678.83	4.51
679.157	4.52
679.484	4.52
679.81	4.52
680.137	4.52
680.464	4.52
680.791	4.53
681.117	4.53
681.444	4.53
681.771	4.54
682.097	4.54
682.424	4.55
682.75	4.55
683.077	4.55
683.403	4.56
683.729	4.57
684.056	4.56
684.382	4.57
684.708	4.57
685.034	4.58
685.36	4.59
685.686	4.59
686.012	4.6
686.339	4.6
686.664	4.61
686.99	4.61
687.316	4.62
687.642	4.62
687.968	4.64
688.294	4.65
688.619	4.65
688.945	4.65
689.271	4.66
689.596	4.67
689.922	4.67
690.247	4.68
690.573	4.69
690.898	4.7
691.224	4.71
691.549	4.71
691.874	4.72
692.2	4.73
692.525	4.74
692.85	4.75
693.175	4.77
693.5	4.78
693.825	4.79
694.15	4.79
694.475	4.8
694.8	4.8
695.125	4.8
695.45	4.8
695.775	4.81
696.099	4.82
696.424	4.83
696.749	4.83
697.073	4.83
697.398	4.84
697.723	4.85
698.047	4.86
698.372	4.86
698.696	4.87
699.02	4.88
699.345	4.89
699.669	4.89
699.993	4.9
700.318	4.9
700.642	4.91
700.966	4.9
701.29	4.9
701.614	4.9
701.938	4.92
702.262	4.93
702.586	4.93
702.91	4.93
703.234	4.94
703.557	4.94
703.881	4.95
704.205	4.95
704.529	4.96
704.852	4.96
705.176	4.97
705.499	4.97
705.823	4.96
706.146	4.97
706.47	4.97
706.793	4.98
707.117	4.99
707.44	5
707.763	5
708.086	5.01
708.409	5.02
708.733	5.02
709.056	5.04
709.379	5.04
709.702	5.05
710.025	5.05
710.348	5.06
710.671	5.07
710.993	5.07
711.316	5.08
711.639	5.08
711.962	5.09
712.284	5.11
712.607	5.11
712.93	5.1
713.252	5.11
713.575	5.13
713.897	5.13
714.22	5.14
714.542	5.15
714.864	5.12
715.187	5.12
715.509	5.11
715.831	5.12
716.153	5.12
716.475	5.13
716.798	5.12
717.12	5.12
717.442	5.15
717.764	5.15
718.085	5.15
718.407	5.15
718.729	5.16
719.051	5.17
719.373	5.17
719.695	5.18
720.016	5.17
720.338	5.17
720.659	5.17
720.981	5.18
721.302	5.18
721.624	5.19
721.945	5.19
722.267	5.18
722.588	5.19
722.909	5.2
723.231	5.21
723.552	5.21
723.873	5.23
724.194	5.24
724.515	5.24
724.836	5.25
725.157	5.24
725.478	5.24
725.799	5.26
726.12	5.28
726.441	5.28
726.762	5.29
727.083	5.29
727.403	5.28
727.724	5.31
728.045	5.36
728.365	5.4
728.686	5.41
729.006	5.43
729.327	5.45
729.647	5.46
729.967	5.48
730.288	5.5
730.608	5.5
730.928	5.51
731.249	5.54
731.569	5.54
731.889	5.55
732.209	5.57
732.529	5.56
732.849	5.57
733.169	5.58
733.489	5.61
733.809	5.62
734.129	5.64
734.448	5.65
734.768	5.67
735.088	5.69
735.408	5.7
735.727	5.71
736.047	5.71
736.366	5.72
736.686	5.73
737.005	5.75
737.325	5.75
737.644	5.75
737.963	5.76
738.283	5.76
738.602	5.76
738.921	5.76
739.24	5.77
739.56	5.78
739.879	5.78
740.198	5.78
740.517	5.8
740.836	5.78
741.155	5.77
741.473	5.75
741.792	5.74
742.111	5.74
742.43	5.74
742.748	5.75
743.067	5.75
743.386	5.76
743.704	5.76
744.023	5.76
744.341	5.73
744.66	5.74
744.978	5.73
745.297	5.75
745.615	5.78
745.933	5.8
746.252	5.82
746.57	5.81
746.888	5.82
747.206	5.81
747.524	5.81
747.842	5.81
748.16	5.8
748.478	5.81
748.796	5.79
749.114	5.79
749.432	5.8
749.749	5.81
750.067	5.82
750.385	5.84
750.703	5.81
751.02	5.82
751.338	5.84
751.655	5.88
751.973	5.89
752.29	5.88
752.608	5.9
752.925	5.9
753.242	5.93
753.56	5.94
753.877	5.96
754.194	5.98
754.511	5.99
754.828	5.99
755.145	6.02
755.462	6.04
755.779	6.07
756.096	6.08
756.413	6.07
756.73	6.09
757.047	6.09
757.364	6.1
757.68	6.13
757.997	6.14
758.314	6.14
758.63	6.15
758.947	6.14
759.264	6.15
759.58	6.15
759.896	6.17
760.213	6.18
760.529	6.2
760.846	6.2
761.162	6.22
761.478	6.24
761.794	6.25
762.11	6.26
762.426	6.28
762.743	6.28
763.059	6.26
763.375	6.26
763.69	6.31
764.006	6.32
764.322	6.33
764.638	6.33
764.954	6.34
765.27	6.37
765.585	6.36
765.901	6.39
766.216	6.39
766.532	6.4
766.848	6.42
767.163	6.43
767.478	6.41
767.794	6.44
768.109	6.45
768.424	6.42
768.74	6.4
769.055	6.41
769.37	6.43
769.685	6.43
770	6.46
770.315	6.48
770.63	6.48
770.945	6.5
771.26	6.48
771.575	6.5
771.89	6.53
772.205	6.55
772.52	6.59
772.834	6.61
773.149	6.62
773.464	6.65
773.778	6.67
774.093	6.67
774.407	6.67
774.722	6.68
775.036	6.7
775.351	6.72
775.665	6.75
775.979	6.8
776.293	6.81
776.608	6.81
776.922	6.81
777.236	6.82
777.55	6.83
777.864	6.83
778.178	6.83
778.492	6.85
778.806	6.84
779.12	6.84
779.434	6.85
779.747	6.83
780.061	6.83
780.375	6.89
780.689	6.88
781.002	6.87
781.316	6.91
781.629	6.9
781.943	6.9
782.256	6.91
782.57	6.92
782.883	6.93
783.196	6.93
783.51	6.94
783.823	6.95
784.136	6.99
784.449	6.97
784.762	6.98
785.075	6.95
785.388	6.93
785.701	6.9
786.014	6.94
786.327	6.93
786.64	6.92
786.953	6.99
787.266	7.02
787.578	7.05
787.891	7.06
788.204	7.04
788.516	7.05
788.829	7.08
789.141	7.07
789.454	7.07
789.766	7.13
790.079	7.16
790.391	7.16
790.703	7.18
791.016	7.2
791.328	7.23
791.64	7.26
791.952	7.29
792.264	7.27
792.576	7.27
792.888	7.26
793.2	7.29
793.512	7.32
793.824	7.34
794.136	7.32
794.448	7.34
794.76	7.37
795.071	7.4
795.383	7.42
795.695	7.42
796.006	7.41
796.318	7.38
796.629	7.36
796.941	7.34
797.252	7.34
797.564	7.35
797.875	7.36
798.186	7.35
798.497	7.4
798.809	7.36
799.12	7.35
799.431	7.42
799.742	7.38
800.053	7.4
800.364	7.4
800.675	7.38
800.986	7.41
801.297	7.42
801.608	7.42
801.918	7.41
802.229	7.42
802.54	7.37
802.851	7.34
803.161	7.32
803.472	7.33
803.782	7.36
804.093	7.36
804.403	7.36
804.714	7.38
805.024	7.42
805.334	7.43
805.645	7.48
805.955	7.47
806.265	7.48
806.575	7.47
806.885	7.52
807.195	7.58
807.505	7.58
807.815	7.63
808.125	7.65
808.435	7.66
808.745	7.67
809.055	7.7
809.365	7.75
809.674	7.81
809.984	7.88
810.294	7.87
810.603	7.87
810.913	7.91
811.222	7.87
811.532	7.86
811.841	7.9
812.151	7.87
812.46	7.88
812.769	7.85
813.079	7.91
813.388	8
813.697	8
814.006	8.01
814.315	7.94
814.624	8.05
814.933	8.05
815.242	8.14
815.551	8.12
815.86	8.18
816.169	8.18
816.478	8.2
816.786	8.2
817.095	8.18
817.404	8.13
817.712	8.12
818.021	8.14
818.33	8.12
818.638	8.14
818.947	8.14
819.255	8.15
819.563	8.16
819.872	8.15
820.18	8.16
820.488	8.15
820.796	8.15
821.105	8.18
821.413	8.21
821.721	8.24
822.029	8.24
822.337	8.22
822.645	8.2
822.953	8.22
823.26	8.23
823.568	8.23
823.876	8.24
824.184	8.27
824.491	8.27
824.799	8.27
825.107	8.29
825.414	8.31
825.722	8.31
826.029	8.3
826.337	8.29
826.644	8.3
826.951	8.32
827.259	8.3
827.566	8.3
827.873	8.28
828.18	8.3
828.488	8.29
828.795	8.3
829.102	8.28
829.409	8.29
829.716	8.31
830.023	8.32
830.329	8.34
830.636	8.34
830.943	8.36
831.25	8.35
831.557	8.36
831.863	8.38
832.17	8.39
832.476	8.37
832.783	8.36
833.089	8.37
833.396	8.36
833.702	8.34
834.009	8.32
834.315	8.32
834.621	8.36
834.928	8.41
835.234	8.42
835.54	8.41
835.846	8.4
836.152	8.39
836.458	8.36
836.764	8.35
837.07	8.36
837.376	8.35
837.682	8.34
837.988	8.33
838.293	8.31
838.599	8.34
838.905	8.29
839.211	8.24
839.516	8.23
839.822	8.24
840.127	8.29
840.433	8.36
840.738	8.37
841.044	8.39
841.349	8.37
841.654	8.4
841.959	8.41
842.265	8.39
842.57	8.42
842.875	8.45
843.18	8.46
843.485	8.48
843.79	8.56
844.095	8.62
844.4	8.64
844.705	8.73
845.01	8.75
845.315	8.77
845.619	8.73
845.924	8.79
846.229	8.85
846.533	8.97
846.838	9.01
847.142	8.94
847.447	8.93
847.751	9.02
848.056	9.04
848.36	9.15
848.664	9.28
848.969	9.49
849.273	9.54
849.577	9.58
849.881	9.65
850.185	9.76
850.489	9.73
850.794	9.8
851.097	9.79
851.401	9.99
851.705	10.13
852.009	10.23
852.313	10.28
852.617	10.27
852.92	10.25
853.224	10.2
853.528	10.18
853.831	10.26
854.135	10.37
854.438	10.27
854.742	10.4
855.045	10.4
855.349	10.62
855.652	10.74
855.955	10.71
856.259	10.7
856.562	10.76
856.865	10.69
857.168	10.59
857.471	10.57
857.774	10.79
858.077	10.79
858.38	10.91
858.683	10.93
858.986	10.79
859.289	10.69
859.592	10.75
859.894	10.74
860.197	10.68
860.5	10.8
860.802	10.75
861.105	10.81
861.407	10.62
861.71	10.48
862.012	10.48
862.315	10.46
862.617	10.32
862.919	10.35
863.222	10.26
863.524	10.33
863.826	10.36
864.128	10.23
864.43	10.3
864.732	10.28
865.034	10.24
865.336	10.26
865.638	10.28
865.94	10.3
866.242	10.4
866.544	10.4
866.846	10.5
867.147	10.45
867.449	10.36
867.751	10.26
868.052	10.31
868.354	10.4
868.655	10.31
868.957	10.3
869.258	10.37
869.56	10.48
869.861	10.71
870.162	10.56
870.463	10.72
870.765	10.57
871.066	10.69
871.367	10.74
871.668	10.82
871.969	10.92
872.27	10.94
872.571	11.06
872.872	11.02
873.173	11.11
873.473	11.07
873.774	11.18
874.075	11.3
874.376	11.34
874.676	11.38
874.977	11.48
875.277	11.55
875.578	11.71
875.878	11.72
876.179	11.68
876.479	11.83
876.78	11.85
877.08	11.82
877.38	11.87
877.68	11.86
877.981	11.92
878.281	12.06
878.581	12.01
